Shimmer 1	Shimmer 1	Shimmer 1	Shimmer 1	Shimmer 1	Shimmer 1
Timestamp	ECG RA-LL	ECG LA-LL	Timestamp	ECG RA-LL	ECG LA-LL
RAW	RAW	RAW	CAL	CAL	CAL
No unit	No unit	No unit	mSecs	mVolts*	mVolts*
19201	1979	2043	76585,9680175781	-0,339089481946625	-0,0711669283097855
19361	2052	2058	76590,8508300781	-0,0334903192046049	-0,00837257980115123
19521	2048	2042	76595,7336425781	-0,0502354788069074	-0,0753532182103611
19681	2053	2048	76600,6164550781	-0,0293040293040293	-0,0502354788069074
19841	2054	2064	76605,4992675781	-0,0251177394034537	0,0167451596023025
20001	2048	2052	76610,3820800781	-0,0502354788069074	-0,0334903192046049
20161	2057	2042	76615,2648925781	-0,0125588697017268	-0,0753532182103611
20321	2049	2053	76620,1477050781	-0,0460491889063318	-0,0293040293040293
20481	2055	2064	76625,0305175781	-0,0209314495028781	0,0167451596023025
20641	2052	2053	76629,9133300781	-0,0334903192046049	-0,0293040293040293
20801	2054	2038	76634,7961425781	-0,0251177394034537	-0,0920983778126635
20961	2055	2044	76639,6789550781	-0,0209314495028781	-0,0669806384092098
21121	2046	2060	76644,5617675781	-0,0586080586080586	0
21281	2051	2058	76649,4445800781	-0,0376766091051805	-0,00837257980115123
21441	2050	2039	76654,3273925781	-0,0418628990057562	-0,0879120879120879
21601	2051	2043	76659,2102050781	-0,0376766091051805	-0,0711669283097855
21761	2056	2059	76664,0930175781	-0,0167451596023025	-0,00418628990057562
21921	2056	2059	76668,9758300781	-0,0167451596023025	-0,00418628990057562
22081	2055	2040	76673,8586425781	-0,0209314495028781	-0,0837257980115123
22241	2054	2041	76678,7414550781	-0,0251177394034537	-0,0795395081109367
22401	2056	2061	76683,6242675781	-0,0167451596023025	0,00418628990057562
22561	2054	2062	76688,5070800781	-0,0251177394034537	0,00837257980115123
22721	2055	2041	76693,3898925781	-0,0209314495028781	-0,0795395081109367
22881	2052	2040	76698,2727050781	-0,0334903192046049	-0,0837257980115123
23041	2056	2059	76703,1555175781	-0,0167451596023025	-0,00418628990057562
23201	2057	2062	76708,0383300781	-0,0125588697017268	0,00837257980115123
23361	2054	2043	76712,9211425781	-0,0251177394034537	-0,0711669283097855
23521	2048	2040	76717,8039550781	-0,0502354788069074	-0,0837257980115123
23681	2052	2056	76722,6867675781	-0,0334903192046049	-0,0167451596023025
23841	2051	2066	76727,5695800781	-0,0376766091051805	0,0251177394034537
24001	2052	2047	76732,4523925781	-0,0334903192046049	-0,054421768707483
24161	2053	2039	76737,3352050781	-0,0293040293040293	-0,0879120879120879
24321	2051	2050	76742,2180175781	-0,0376766091051805	-0,0418628990057562
24481	2052	2062	76747,1008300781	-0,0334903192046049	0,00837257980115123
24641	2049	2047	76751,9836425781	-0,0460491889063318	-0,054421768707483
24801	2045	2037	76756,8664550781	-0,0627943485086342	-0,0962846677132392
24961	2048	2052	76761,7492675781	-0,0502354788069074	-0,0334903192046049
25121	2050	2063	76766,6320800781	-0,0418628990057562	0,0125588697017268
25281	2053	2055	76771,5148925781	-0,0293040293040293	-0,0209314495028781
25441	2054	2045	76776,3977050781	-0,0251177394034537	-0,0627943485086342
25601	2053	2057	76781,2805175781	-0,0293040293040293	-0,0125588697017268
25761	2052	2071	76786,1633300781	-0,0334903192046049	0,0460491889063318
25921	2048	2057	76791,0461425781	-0,0502354788069074	-0,0125588697017268
26081	2048	2047	76795,9289550781	-0,0502354788069074	-0,054421768707483
26241	2048	2055	76800,8117675781	-0,0502354788069074	-0,0209314495028781
26401	2052	2070	76805,6945800781	-0,0334903192046049	0,0418628990057562
26561	2051	2067	76810,5773925781	-0,0376766091051805	0,0293040293040293
26721	2051	2047	76815,4602050781	-0,0376766091051805	-0,054421768707483
26881	2052	2052	76820,3430175781	-0,0334903192046049	-0,0334903192046049
27041	2055	2074	76825,2258300781	-0,0209314495028781	0,0586080586080586
27201	2044	2062	76830,1086425781	-0,0669806384092098	0,00837257980115123
27361	2045	2046	76834,9914550781	-0,0627943485086342	-0,0586080586080586
27521	2052	2055	76839,8742675781	-0,0334903192046049	-0,0209314495028781
27681	2054	2068	76844,7570800781	-0,0251177394034537	0,0334903192046049
27841	2055	2064	76849,6398925781	-0,0209314495028781	0,0167451596023025
28001	2052	2046	76854,5227050781	-0,0334903192046049	-0,0586080586080586
28161	2055	2048	76859,4055175781	-0,0209314495028781	-0,0502354788069074
28321	2048	2065	76864,2883300781	-0,0502354788069074	0,0209314495028781
28481	2047	2054	76869,1711425781	-0,054421768707483	-0,0251177394034537
28641	2056	2047	76874,0539550781	-0,0167451596023025	-0,054421768707483
28801	2054	2047	76878,9367675781	-0,0251177394034537	-0,054421768707483
28961	2052	2063	76883,8195800781	-0,0334903192046049	0,0125588697017268
29121	2051	2063	76888,7023925781	-0,0376766091051805	0,0125588697017268
29281	2052	2044	76893,5852050781	-0,0334903192046049	-0,0669806384092098
29441	2048	2043	76898,4680175781	-0,0502354788069074	-0,0711669283097855
29601	2048	2063	76903,3508300781	-0,0502354788069074	0,0125588697017268
29761	2048	2061	76908,2336425781	-0,0502354788069074	0,00418628990057562
29921	2047	2038	76913,1164550781	-0,054421768707483	-0,0920983778126635
30081	2052	2039	76917,9992675781	-0,0334903192046049	-0,0879120879120879
30241	2050	2055	76922,8820800781	-0,0418628990057562	-0,0209314495028781
30401	2052	2060	76927,7648925781	-0,0334903192046049	0
30561	2051	2041	76932,6477050781	-0,0376766091051805	-0,0795395081109367
30721	2048	2032	76937,5305175781	-0,0502354788069074	-0,117216117216117
30881	2044	2047	76942,4133300781	-0,0669806384092098	-0,054421768707483
31041	2046	2051	76947,2961425781	-0,0586080586080586	-0,0376766091051805
31201	2050	2042	76952,1789550781	-0,0418628990057562	-0,0753532182103611
31361	2051	2030	76957,0617675781	-0,0376766091051805	-0,125588697017268
31521	2052	2048	76961,9445800781	-0,0334903192046049	-0,0502354788069074
31681	2054	2059	76966,8273925781	-0,0251177394034537	-0,00418628990057562
31841	2054	2045	76971,7102050781	-0,0251177394034537	-0,0627943485086342
32001	2051	2035	76976,5930175781	-0,0376766091051805	-0,10465724751439
32161	2045	2047	76981,4758300781	-0,0627943485086342	-0,054421768707483
32321	2044	2062	76986,3586425781	-0,0669806384092098	0,00837257980115123
32481	2051	2046	76991,2414550781	-0,0376766091051805	-0,0586080586080586
32641	2048	2031	76996,1242675781	-0,0502354788069074	-0,121402407116693
32801	2052	2045	77001,0070800781	-0,0334903192046049	-0,0627943485086342
32961	2053	2057	77005,8898925781	-0,0293040293040293	-0,0125588697017268
33121	2056	2048	77010,7727050781	-0,0167451596023025	-0,0502354788069074
33281	2051	2033	77015,6555175781	-0,0376766091051805	-0,113029827315542
33441	2053	2043	77020,5383300781	-0,0293040293040293	-0,0711669283097855
33601	2052	2056	77025,4211425781	-0,0334903192046049	-0,0167451596023025
33761	2057	2050	77030,3039550781	-0,0125588697017268	-0,0418628990057562
33921	2058	2035	77035,1867675781	-0,00837257980115123	-0,10465724751439
34081	2052	2041	77040,0695800781	-0,0334903192046049	-0,0795395081109367
34241	2056	2058	77044,9523925781	-0,0167451596023025	-0,00837257980115123
34401	2048	2054	77049,8352050781	-0,0502354788069074	-0,0251177394034537
34561	2049	2038	77054,7180175781	-0,0460491889063318	-0,0920983778126635
34721	2050	2042	77059,6008300781	-0,0418628990057562	-0,0753532182103611
34881	2052	2065	77064,4836425781	-0,0334903192046049	0,0209314495028781
35041	2054	2060	77069,3664550781	-0,0251177394034537	0
35201	2053	2042	77074,2492675781	-0,0293040293040293	-0,0753532182103611
35361	2055	2042	77079,1320800781	-0,0209314495028781	-0,0753532182103611
35521	2055	2064	77084,0148925781	-0,0209314495028781	0,0167451596023025
35681	2052	2064	77088,8977050781	-0,0334903192046049	0,0167451596023025
35841	2052	2043	77093,7805175781	-0,0334903192046049	-0,0711669283097855
36001	2051	2040	77098,6633300781	-0,0376766091051805	-0,0837257980115123
36161	2054	2060	77103,5461425781	-0,0251177394034537	0
36321	2054	2061	77108,4289550781	-0,0251177394034537	0,00418628990057562
36481	2056	2046	77113,3117675781	-0,0167451596023025	-0,0586080586080586
36641	2052	2042	77118,1945800781	-0,0334903192046049	-0,0753532182103611
36801	2057	2061	77123,0773925781	-0,0125588697017268	0,00418628990057562
36961	2052	2065	77127,9602050781	-0,0334903192046049	0,0209314495028781
37121	2053	2047	77132,8430175781	-0,0293040293040293	-0,054421768707483
37281	2052	2040	77137,7258300781	-0,0334903192046049	-0,0837257980115123
37441	2055	2055	77142,6086425781	-0,0209314495028781	-0,0209314495028781
37601	2056	2061	77147,4914550781	-0,0167451596023025	0,00418628990057562
37761	2056	2047	77152,3742675781	-0,0167451596023025	-0,054421768707483
37921	2057	2039	77157,2570800781	-0,0125588697017268	-0,0879120879120879
38081	2056	2055	77162,1398925781	-0,0167451596023025	-0,0209314495028781
38241	2055	2065	77167,0227050781	-0,0209314495028781	0,0209314495028781
38401	2052	2057	77171,9055175781	-0,0334903192046049	-0,0125588697017268
38561	2057	2042	77176,7883300781	-0,0125588697017268	-0,0753532182103611
38721	2054	2053	77181,6711425781	-0,0251177394034537	-0,0293040293040293
38881	2058	2067	77186,5539550781	-0,00837257980115123	0,0293040293040293
39041	2057	2055	77191,4367675781	-0,0125588697017268	-0,0209314495028781
39201	2051	2039	77196,3195800781	-0,0376766091051805	-0,0879120879120879
39361	2046	2049	77201,2023925781	-0,0586080586080586	-0,0460491889063318
39521	2053	2062	77206,0852050781	-0,0293040293040293	0,00837257980115123
39681	2052	2053	77210,9680175781	-0,0334903192046049	-0,0293040293040293
39841	2051	2037	77215,8508300781	-0,0376766091051805	-0,0962846677132392
40001	2049	2048	77220,7336425781	-0,0460491889063318	-0,0502354788069074
40161	2054	2063	77225,6164550781	-0,0251177394034537	0,0125588697017268
40321	2053	2054	77230,4992675781	-0,0293040293040293	-0,0251177394034537
40481	2049	2037	77235,3820800781	-0,0460491889063318	-0,0962846677132392
40641	2048	2045	77240,2648925781	-0,0502354788069074	-0,0627943485086342
40801	2056	2064	77245,1477050781	-0,0167451596023025	0,0167451596023025
40961	2053	2056	77250,0305175781	-0,0293040293040293	-0,0167451596023025
41121	2053	2032	77254,9133300781	-0,0293040293040293	-0,117216117216117
41281	2054	2043	77259,7961425781	-0,0251177394034537	-0,0711669283097855
41441	2055	2060	77264,6789550781	-0,0209314495028781	0
41601	2054	2059	77269,5617675781	-0,0251177394034537	-0,00418628990057562
41761	2054	2040	77274,4445800781	-0,0251177394034537	-0,0837257980115123
41921	2054	2042	77279,3273925781	-0,0251177394034537	-0,0753532182103611
42081	2055	2057	77284,2102050781	-0,0209314495028781	-0,0125588697017268
42241	2059	2061	77289,0930175781	-0,00418628990057562	0,00418628990057562
42401	2054	2043	77293,9758300781	-0,0251177394034537	-0,0711669283097855
42561	2056	2042	77298,8586425781	-0,0167451596023025	-0,0753532182103611
42721	2048	2057	77303,7414550781	-0,0502354788069074	-0,0125588697017268
42881	2048	2060	77308,6242675781	-0,0502354788069074	0
43041	2047	2039	77313,5070800781	-0,054421768707483	-0,0879120879120879
43201	2053	2041	77318,3898925781	-0,0293040293040293	-0,0795395081109367
43361	2050	2057	77323,2727050781	-0,0418628990057562	-0,0125588697017268
43521	2053	2062	77328,1555175781	-0,0293040293040293	0,00837257980115123
43681	2056	2045	77333,0383300781	-0,0167451596023025	-0,0627943485086342
43841	2052	2039	77337,9211425781	-0,0334903192046049	-0,0879120879120879
44001	2056	2062	77342,8039550781	-0,0167451596023025	0,00837257980115123
44161	2054	2066	77347,6867675781	-0,0251177394034537	0,0251177394034537
44321	2048	2044	77352,5695800781	-0,0502354788069074	-0,0669806384092098
44481	2052	2040	77357,4523925781	-0,0334903192046049	-0,0837257980115123
44641	2051	2055	77362,3352050781	-0,0376766091051805	-0,0209314495028781
44801	2056	2067	77367,2180175781	-0,0167451596023025	0,0293040293040293
44961	2054	2049	77372,1008300781	-0,0251177394034537	-0,0460491889063318
45121	2051	2035	77376,9836425781	-0,0376766091051805	-0,10465724751439
45281	2051	2051	77381,8664550781	-0,0376766091051805	-0,0376766091051805
45441	2051	2062	77386,7492675781	-0,0376766091051805	0,00837257980115123
45601	2049	2047	77391,6320800781	-0,0460491889063318	-0,054421768707483
45761	2046	2035	77396,5148925781	-0,0586080586080586	-0,10465724751439
45921	2053	2051	77401,3977050781	-0,0293040293040293	-0,0376766091051805
46081	2052	2065	77406,2805175781	-0,0334903192046049	0,0209314495028781
46241	2051	2052	77411,1633300781	-0,0376766091051805	-0,0334903192046049
46401	2052	2036	77416,0461425781	-0,0334903192046049	-0,100470957613815
46561	2053	2051	77420,9289550781	-0,0293040293040293	-0,0376766091051805
46721	2056	2067	77425,8117675781	-0,0167451596023025	0,0293040293040293
46881	2048	2054	77430,6945800781	-0,0502354788069074	-0,0251177394034537
47041	2050	2037	77435,5773925781	-0,0418628990057562	-0,0962846677132392
47201	2050	2041	77440,4602050781	-0,0418628990057562	-0,0795395081109367
47361	2057	2067	77445,3430175781	-0,0125588697017268	0,0293040293040293
47521	2057	2059	77450,2258300781	-0,0125588697017268	-0,00418628990057562
47681	2056	2039	77455,1086425781	-0,0167451596023025	-0,0879120879120879
47841	2051	2042	77459,9914550781	-0,0376766091051805	-0,0753532182103611
48001	2056	2063	77464,8742675781	-0,0167451596023025	0,0125588697017268
48161	2051	2059	77469,7570800781	-0,0376766091051805	-0,00418628990057562
48321	2053	2038	77474,6398925781	-0,0293040293040293	-0,0920983778126635
48481	2048	2042	77479,5227050781	-0,0502354788069074	-0,0753532182103611
48641	2052	2063	77484,4055175781	-0,0334903192046049	0,0125588697017268
48801	2053	2061	77489,2883300781	-0,0293040293040293	0,00418628990057562
48961	2050	2039	77494,1711425781	-0,0418628990057562	-0,0879120879120879
49121	2048	2040	77499,0539550781	-0,0502354788069074	-0,0837257980115123
49281	2053	2064	77503,9367675781	-0,0293040293040293	0,0167451596023025
49441	2044	2061	77508,8195800781	-0,0669806384092098	0,00418628990057562
49601	2048	2036	77513,7023925781	-0,0502354788069074	-0,100470957613815
49761	2042	2037	77518,5852050781	-0,0753532182103611	-0,0962846677132392
49921	2051	2057	77523,4680175781	-0,0376766091051805	-0,0125588697017268
50081	2052	2060	77528,3508300781	-0,0334903192046049	0
50241	2051	2039	77533,2336425781	-0,0376766091051805	-0,0879120879120879
50401	2050	2033	77538,1164550781	-0,0418628990057562	-0,113029827315542
50561	2048	2055	77542,9992675781	-0,0502354788069074	-0,0209314495028781
50721	2049	2063	77547,8820800781	-0,0460491889063318	0,0125588697017268
50881	2043	2038	77552,7648925781	-0,0711669283097855	-0,0920983778126635
51041	2038	2023	77557,6477050781	-0,0920983778126635	-0,154892726321298
51201	2048	2052	77562,5305175781	-0,0502354788069074	-0,0334903192046049
51361	2052	2064	77567,4133300781	-0,0334903192046049	0,0167451596023025
51521	2051	2045	77572,2961425781	-0,0376766091051805	-0,0627943485086342
51681	2048	2033	77577,1789550781	-0,0502354788069074	-0,113029827315542
51841	2048	2050	77582,0617675781	-0,0502354788069074	-0,0418628990057562
52001	2050	2063	77586,9445800781	-0,0418628990057562	0,0125588697017268
52161	2044	2043	77591,8273925781	-0,0669806384092098	-0,0711669283097855
52321	2047	2030	77596,7102050781	-0,054421768707483	-0,125588697017268
52481	2050	2049	77601,5930175781	-0,0418628990057562	-0,0460491889063318
52641	2053	2064	77606,4758300781	-0,0293040293040293	0,0167451596023025
52801	2051	2050	77611,3586425781	-0,0376766091051805	-0,0418628990057562
52961	2048	2030	77616,2414550781	-0,0502354788069074	-0,125588697017268
53121	2048	2045	77621,1242675781	-0,0502354788069074	-0,0627943485086342
53281	2048	2067	77626,0070800781	-0,0502354788069074	0,0293040293040293
53441	2049	2053	77630,8898925781	-0,0460491889063318	-0,0293040293040293
53601	2050	2040	77635,7727050781	-0,0418628990057562	-0,0837257980115123
53761	2048	2047	77640,6555175781	-0,0502354788069074	-0,054421768707483
53921	2052	2068	77645,5383300781	-0,0334903192046049	0,0334903192046049
54081	2055	2059	77650,4211425781	-0,0209314495028781	-0,00418628990057562
54241	2057	2041	77655,3039550781	-0,0125588697017268	-0,0795395081109367
54401	2053	2048	77660,1867675781	-0,0293040293040293	-0,0502354788069074
54561	2053	2068	77665,0695800781	-0,0293040293040293	0,0334903192046049
54721	2052	2060	77669,9523925781	-0,0334903192046049	0
54881	2048	2039	77674,8352050781	-0,0502354788069074	-0,0879120879120879
55041	2048	2045	77679,7180175781	-0,0502354788069074	-0,0627943485086342
55201	2048	2063	77684,6008300781	-0,0502354788069074	0,0125588697017268
55361	2047	2060	77689,4836425781	-0,054421768707483	0
55521	2050	2040	77694,3664550781	-0,0418628990057562	-0,0837257980115123
55681	2049	2040	77699,2492675781	-0,0460491889063318	-0,0837257980115123
55841	2048	2059	77704,1320800781	-0,0502354788069074	-0,00418628990057562
56001	2049	2060	77709,0148925781	-0,0460491889063318	0
56161	2051	2042	77713,8977050781	-0,0376766091051805	-0,0753532182103611
56321	2042	2040	77718,7805175781	-0,0753532182103611	-0,0837257980115123
56481	2041	2059	77723,6633300781	-0,0795395081109367	-0,00418628990057562
56641	2049	2061	77728,5461425781	-0,0460491889063318	0,00418628990057562
56801	2053	2043	77733,4289550781	-0,0293040293040293	-0,0711669283097855
56961	2053	2040	77738,3117675781	-0,0293040293040293	-0,0837257980115123
57121	2050	2059	77743,1945800781	-0,0418628990057562	-0,00418628990057562
57281	2052	2064	77748,0773925781	-0,0334903192046049	0,0167451596023025
57441	2045	2043	77752,9602050781	-0,0627943485086342	-0,0711669283097855
57601	2049	2041	77757,8430175781	-0,0460491889063318	-0,0795395081109367
57761	2053	2057	77762,7258300781	-0,0293040293040293	-0,0125588697017268
57921	2051	2063	77767,6086425781	-0,0376766091051805	0,0125588697017268
58081	2051	2048	77772,4914550781	-0,0376766091051805	-0,0502354788069074
58241	2058	2042	77777,3742675781	-0,00837257980115123	-0,0753532182103611
58401	2049	2055	77782,2570800781	-0,0460491889063318	-0,0209314495028781
58561	2054	2068	77787,1398925781	-0,0251177394034537	0,0334903192046049
58721	2051	2052	77792,0227050781	-0,0376766091051805	-0,0334903192046049
58881	2055	2039	77796,9055175781	-0,0209314495028781	-0,0879120879120879
59041	2054	2053	77801,7883300781	-0,0251177394034537	-0,0293040293040293
59201	2049	2062	77806,6711425781	-0,0460491889063318	0,00837257980115123
59361	2055	2058	77811,5539550781	-0,0209314495028781	-0,00837257980115123
59521	2057	2045	77816,4367675781	-0,0125588697017268	-0,0627943485086342
59681	2049	2050	77821,3195800781	-0,0460491889063318	-0,0418628990057562
59841	2037	2058	77826,2023925781	-0,0962846677132392	-0,00837257980115123
60001	2044	2053	77831,0852050781	-0,0669806384092098	-0,0293040293040293
60161	2058	2041	77835,9680175781	-0,00837257980115123	-0,0795395081109367
60321	2056	2052	77840,8508300781	-0,0167451596023025	-0,0334903192046049
60481	2053	2062	77845,7336425781	-0,0293040293040293	0,00837257980115123
60641	2053	2058	77850,6164550781	-0,0293040293040293	-0,00837257980115123
60801	2062	2041	77855,4992675781	0,00837257980115123	-0,0795395081109367
60961	2055	2048	77860,3820800781	-0,0209314495028781	-0,0502354788069074
61121	2045	2057	77865,2648925781	-0,0627943485086342	-0,0125588697017268
61281	2046	2053	77870,1477050781	-0,0586080586080586	-0,0293040293040293
61441	2050	2040	77875,0305175781	-0,0418628990057562	-0,0837257980115123
61601	2056	2043	77879,9133300781	-0,0167451596023025	-0,0711669283097855
61761	2048	2055	77884,7961425781	-0,0502354788069074	-0,0209314495028781
61921	2048	2051	77889,6789550781	-0,0502354788069074	-0,0376766091051805
62081	2058	2043	77894,5617675781	-0,00837257980115123	-0,0711669283097855
62241	2055	2043	77899,4445800781	-0,0209314495028781	-0,0711669283097855
62401	2043	2054	77904,3273925781	-0,0711669283097855	-0,0251177394034537
62561	2040	2046	77909,2102050781	-0,0837257980115123	-0,0586080586080586
62721	2049	2042	77914,0930175781	-0,0460491889063318	-0,0753532182103611
62881	2050	2044	77918,9758300781	-0,0418628990057562	-0,0669806384092098
63041	2048	2052	77923,8586425781	-0,0502354788069074	-0,0334903192046049
63201	2044	2051	77928,7414550781	-0,0669806384092098	-0,0376766091051805
63361	2056	2045	77933,6242675781	-0,0167451596023025	-0,0627943485086342
63521	2056	2047	77938,5070800781	-0,0167451596023025	-0,054421768707483
63681	2049	2058	77943,3898925781	-0,0460491889063318	-0,00837257980115123
63841	2041	2053	77948,2727050781	-0,0795395081109367	-0,0293040293040293
64001	2053	2047	77953,1555175781	-0,0293040293040293	-0,054421768707483
64161	2058	2048	77958,0383300781	-0,00837257980115123	-0,0502354788069074
64321	2051	2054	77962,9211425781	-0,0376766091051805	-0,0251177394034537
64481	2046	2055	77967,8039550781	-0,0586080586080586	-0,0209314495028781
64641	2054	2047	77972,6867675781	-0,0251177394034537	-0,054421768707483
64801	2057	2047	77977,5695800781	-0,0125588697017268	-0,054421768707483
64961	2035	2048	77982,4523925781	-0,10465724751439	-0,0502354788069074
65121	2041	2048	77987,3352050781	-0,0795395081109367	-0,0502354788069074
65281	2051	2045	77992,2180175781	-0,0376766091051805	-0,0627943485086342
65441	2054	2044	77997,1008300781	-0,0251177394034537	-0,0669806384092098
65	2052	2048	78001,9836425781	-0,0334903192046049	-0,0502354788069074
225	2041	2049	78006,8664550781	-0,0795395081109367	-0,0460491889063318
385	2048	2047	78011,7492675781	-0,0502354788069074	-0,054421768707483
545	2056	2048	78016,6320800781	-0,0167451596023025	-0,0502354788069074
705	2052	2050	78021,5148925781	-0,0334903192046049	-0,0418628990057562
865	2040	2052	78026,3977050781	-0,0837257980115123	-0,0334903192046049
1025	2046	2048	78031,2805175781	-0,0586080586080586	-0,0502354788069074
1185	2062	2045	78036,1633300781	0,00837257980115123	-0,0627943485086342
1345	2054	2045	78041,0461425781	-0,0251177394034537	-0,0627943485086342
1505	2041	2044	78045,9289550781	-0,0795395081109367	-0,0669806384092098
1665	2047	2045	78050,8117675781	-0,054421768707483	-0,0627943485086342
1825	2055	2045	78055,6945800781	-0,0209314495028781	-0,0627943485086342
1985	2053	2048	78060,5773925781	-0,0293040293040293	-0,0502354788069074
2145	2040	2051	78065,4602050781	-0,0837257980115123	-0,0376766091051805
2305	2049	2052	78070,3430175781	-0,0460491889063318	-0,0334903192046049
2465	2061	2048	78075,2258300781	0,00418628990057562	-0,0502354788069074
2625	2061	2054	78080,1086425781	0,00418628990057562	-0,0251177394034537
2785	2047	2054	78084,9914550781	-0,054421768707483	-0,0251177394034537
2945	2048	2055	78089,8742675781	-0,0502354788069074	-0,0209314495028781
3105	2058	2049	78094,7570800781	-0,00837257980115123	-0,0460491889063318
3265	2064	2053	78099,6398925781	0,0167451596023025	-0,0293040293040293
3425	2046	2053	78104,5227050781	-0,0586080586080586	-0,0293040293040293
3585	2049	2056	78109,4055175781	-0,0460491889063318	-0,0167451596023025
3745	2060	2046	78114,2883300781	0	-0,0586080586080586
3905	2060	2047	78119,1711425781	0	-0,054421768707483
4065	2047	2051	78124,0539550781	-0,054421768707483	-0,0376766091051805
4225	2046	2059	78128,9367675781	-0,0586080586080586	-0,00418628990057562
4385	2053	2046	78133,8195800781	-0,0293040293040293	-0,0586080586080586
4545	2059	2048	78138,7023925781	-0,00418628990057562	-0,0502354788069074
4705	2048	2052	78143,5852050781	-0,0502354788069074	-0,0334903192046049
4865	2044	2057	78148,4680175781	-0,0669806384092098	-0,0125588697017268
5025	2055	2047	78153,3508300781	-0,0209314495028781	-0,054421768707483
5185	2059	2046	78158,2336425781	-0,00418628990057562	-0,0586080586080586
5345	2051	2059	78163,1164550781	-0,0376766091051805	-0,00418628990057562
5505	2038	2060	78167,9992675781	-0,0920983778126635	0
5665	2052	2050	78172,8820800781	-0,0334903192046049	-0,0418628990057562
5825	2061	2046	78177,7648925781	0,00418628990057562	-0,0586080586080586
5985	2048	2056	78182,6477050781	-0,0502354788069074	-0,0167451596023025
6145	2043	2059	78187,5305175781	-0,0711669283097855	-0,00418628990057562
6305	2052	2047	78192,4133300781	-0,0334903192046049	-0,054421768707483
6465	2058	2043	78197,2961425781	-0,00837257980115123	-0,0711669283097855
6625	2053	2052	78202,1789550781	-0,0293040293040293	-0,0334903192046049
6785	2040	2060	78207,0617675781	-0,0837257980115123	0
6945	2048	2047	78211,9445800781	-0,0502354788069074	-0,054421768707483
7105	2052	2040	78216,8273925781	-0,0334903192046049	-0,0837257980115123
7265	2051	2051	78221,7102050781	-0,0376766091051805	-0,0376766091051805
7425	2043	2056	78226,5930175781	-0,0711669283097855	-0,0167451596023025
7585	2049	2052	78231,4758300781	-0,0460491889063318	-0,0334903192046049
7745	2060	2043	78236,3586425781	0	-0,0711669283097855
7905	2052	2047	78241,2414550781	-0,0334903192046049	-0,054421768707483
8065	2037	2057	78246,1242675781	-0,0962846677132392	-0,0125588697017268
8225	2048	2052	78251,0070800781	-0,0502354788069074	-0,0334903192046049
8385	2060	2043	78255,8898925781	0	-0,0711669283097855
8545	2054	2051	78260,7727050781	-0,0251177394034537	-0,0376766091051805
8705	2047	2058	78265,6555175781	-0,054421768707483	-0,00837257980115123
8865	2048	2053	78270,5383300781	-0,0502354788069074	-0,0293040293040293
9025	2060	2045	78275,4211425781	0	-0,0627943485086342
9185	2055	2049	78280,3039550781	-0,0209314495028781	-0,0460491889063318
9345	2043	2055	78285,1867675781	-0,0711669283097855	-0,0209314495028781
9505	2045	2053	78290,0695800781	-0,0627943485086342	-0,0293040293040293
9665	2060	2049	78294,9523925781	0	-0,0460491889063318
9825	2060	2051	78299,8352050781	0	-0,0376766091051805
9985	2044	2057	78304,7180175781	-0,0669806384092098	-0,0125588697017268
10145	2045	2055	78309,6008300781	-0,0627943485086342	-0,0209314495028781
10305	2058	2047	78314,4836425781	-0,00837257980115123	-0,054421768707483
10465	2057	2056	78319,3664550781	-0,0125588697017268	-0,0167451596023025
10625	2048	2057	78324,2492675781	-0,0502354788069074	-0,0125588697017268
10785	2047	2056	78329,1320800781	-0,054421768707483	-0,0167451596023025
10945	2061	2053	78334,0148925781	0,00418628990057562	-0,0293040293040293
11105	2057	2052	78338,8977050781	-0,0125588697017268	-0,0334903192046049
11265	2045	2054	78343,7805175781	-0,0627943485086342	-0,0251177394034537
11425	2044	2054	78348,6633300781	-0,0669806384092098	-0,0251177394034537
11585	2057	2051	78353,5461425781	-0,0125588697017268	-0,0376766091051805
11745	2062	2051	78358,4289550781	0,00837257980115123	-0,0376766091051805
11905	2051	2055	78363,3117675781	-0,0376766091051805	-0,0209314495028781
12065	2045	2047	78368,1945800781	-0,0627943485086342	-0,054421768707483
12225	2056	2052	78373,0773925781	-0,0167451596023025	-0,0334903192046049
12385	2060	2051	78377,9602050781	0	-0,0376766091051805
12545	2052	2054	78382,8430175781	-0,0334903192046049	-0,0251177394034537
12705	2048	2052	78387,7258300781	-0,0502354788069074	-0,0334903192046049
12865	2054	2049	78392,6086425781	-0,0251177394034537	-0,0460491889063318
13025	2062	2054	78397,4914550781	0,00837257980115123	-0,0251177394034537
13185	2053	2055	78402,3742675781	-0,0293040293040293	-0,0209314495028781
13345	2045	2050	78407,2570800781	-0,0627943485086342	-0,0418628990057562
13505	2055	2050	78412,1398925781	-0,0209314495028781	-0,0418628990057562
13665	2061	2051	78417,0227050781	0,00418628990057562	-0,0376766091051805
13825	2054	2052	78421,9055175781	-0,0251177394034537	-0,0334903192046049
13985	2047	2045	78426,7883300781	-0,054421768707483	-0,0627943485086342
14145	2053	2050	78431,6711425781	-0,0293040293040293	-0,0418628990057562
14305	2064	2054	78436,5539550781	0,0167451596023025	-0,0251177394034537
14465	2061	2056	78441,4367675781	0,00418628990057562	-0,0167451596023025
14625	2048	2051	78446,3195800781	-0,0502354788069074	-0,0376766091051805
14785	2046	2045	78451,2023925781	-0,0586080586080586	-0,0627943485086342
14945	2057	2051	78456,0852050781	-0,0125588697017268	-0,0376766091051805
15105	2056	2052	78460,9680175781	-0,0167451596023025	-0,0334903192046049
15265	2044	2047	78465,8508300781	-0,0669806384092098	-0,054421768707483
15425	2044	2047	78470,7336425781	-0,0669806384092098	-0,054421768707483
15585	2060	2054	78475,6164550781	0	-0,0251177394034537
15745	2057	2051	78480,4992675781	-0,0125588697017268	-0,0376766091051805
15905	2040	2048	78485,3820800781	-0,0837257980115123	-0,0502354788069074
16065	2044	2049	78490,2648925781	-0,0669806384092098	-0,0460491889063318
16225	2060	2052	78495,1477050781	0	-0,0334903192046049
16385	2058	2054	78500,0305175781	-0,00837257980115123	-0,0251177394034537
16545	2044	2050	78504,9133300781	-0,0669806384092098	-0,0418628990057562
16705	2044	2048	78509,7961425781	-0,0669806384092098	-0,0502354788069074
16865	2054	2052	78514,6789550781	-0,0251177394034537	-0,0334903192046049
17025	2054	2055	78519,5617675781	-0,0251177394034537	-0,0209314495028781
17185	2039	2047	78524,4445800781	-0,0879120879120879	-0,054421768707483
17345	2037	2047	78529,3273925781	-0,0962846677132392	-0,054421768707483
17505	2051	2048	78534,2102050781	-0,0376766091051805	-0,0502354788069074
17665	2057	2055	78539,0930175781	-0,0125588697017268	-0,0209314495028781
17825	2046	2050	78543,9758300781	-0,0586080586080586	-0,0418628990057562
17985	2041	2045	78548,8586425781	-0,0795395081109367	-0,0627943485086342
18145	2052	2051	78553,7414550781	-0,0334903192046049	-0,0376766091051805
18305	2049	2055	78558,6242675781	-0,0460491889063318	-0,0209314495028781
18465	2048	2052	78563,5070800781	-0,0502354788069074	-0,0334903192046049
18625	2043	2042	78568,3898925781	-0,0711669283097855	-0,0753532182103611
18785	2054	2048	78573,2727050781	-0,0251177394034537	-0,0502354788069074
18945	2062	2053	78578,1555175781	0,00837257980115123	-0,0293040293040293
19105	2050	2047	78583,0383300781	-0,0418628990057562	-0,054421768707483
19265	2043	2044	78587,9211425781	-0,0711669283097855	-0,0669806384092098
19425	2048	2048	78592,8039550781	-0,0502354788069074	-0,0502354788069074
19585	2064	2050	78597,6867675781	0,0167451596023025	-0,0418628990057562
19745	2056	2047	78602,5695800781	-0,0167451596023025	-0,054421768707483
19905	2043	2040	78607,4523925781	-0,0711669283097855	-0,0837257980115123
20065	2051	2045	78612,3352050781	-0,0376766091051805	-0,0627943485086342
20225	2064	2048	78617,2180175781	0,0167451596023025	-0,0502354788069074
20385	2056	2047	78622,1008300781	-0,0167451596023025	-0,054421768707483
20545	2036	2042	78626,9836425781	-0,100470957613815	-0,0753532182103611
20705	2046	2039	78631,8664550781	-0,0586080586080586	-0,0879120879120879
20865	2060	2046	78636,7492675781	0	-0,0586080586080586
21025	2056	2051	78641,6320800781	-0,0167451596023025	-0,0376766091051805
21185	2046	2051	78646,5148925781	-0,0586080586080586	-0,0376766091051805
21345	2053	2049	78651,3977050781	-0,0293040293040293	-0,0460491889063318
21505	2064	2049	78656,2805175781	0,0167451596023025	-0,0460491889063318
21665	2058	2052	78661,1633300781	-0,00837257980115123	-0,0334903192046049
21825	2044	2053	78666,0461425781	-0,0669806384092098	-0,0293040293040293
21985	2050	2053	78670,9289550781	-0,0418628990057562	-0,0293040293040293
22145	2065	2052	78675,8117675781	0,0209314495028781	-0,0334903192046049
22305	2058	2055	78680,6945800781	-0,00837257980115123	-0,0209314495028781
22465	2046	2059	78685,5773925781	-0,0586080586080586	-0,00418628990057562
22625	2048	2059	78690,4602050781	-0,0502354788069074	-0,00418628990057562
22785	2064	2047	78695,3430175781	0,0167451596023025	-0,054421768707483
22945	2060	2052	78700,2258300781	0	-0,0334903192046049
23105	2035	2056	78705,1086425781	-0,10465724751439	-0,0167451596023025
23265	2031	2046	78709,9914550781	-0,121402407116693	-0,0586080586080586
23425	2052	2045	78714,8742675781	-0,0334903192046049	-0,0627943485086342
23585	2057	2045	78719,7570800781	-0,0125588697017268	-0,0627943485086342
23745	2044	2057	78724,6398925781	-0,0669806384092098	-0,0125588697017268
23905	2044	2054	78729,5227050781	-0,0669806384092098	-0,0251177394034537
24065	2059	2044	78734,4055175781	-0,00418628990057562	-0,0669806384092098
24225	2058	2045	78739,2883300781	-0,00837257980115123	-0,0627943485086342
24385	2041	2058	78744,1711425781	-0,0795395081109367	-0,00837257980115123
24545	2040	2056	78749,0539550781	-0,0837257980115123	-0,0167451596023025
24705	2056	2044	78753,9367675781	-0,0167451596023025	-0,0669806384092098
24865	2063	2043	78758,8195800781	0,0125588697017268	-0,0711669283097855
25025	2049	2058	78763,7023925781	-0,0460491889063318	-0,00837257980115123
25185	2045	2061	78768,5852050781	-0,0627943485086342	0,00418628990057562
25345	2052	2047	78773,4680175781	-0,0334903192046049	-0,054421768707483
25505	2061	2040	78778,3508300781	0,00418628990057562	-0,0837257980115123
25665	2045	2053	78783,2336425781	-0,0627943485086342	-0,0293040293040293
25825	2041	2062	78788,1164550781	-0,0795395081109367	0,00837257980115123
25985	2056	2047	78792,9992675781	-0,0167451596023025	-0,054421768707483
26145	2064	2042	78797,8820800781	0,0167451596023025	-0,0753532182103611
26305	2052	2058	78802,7648925781	-0,0334903192046049	-0,00837257980115123
26465	2046	2061	78807,6477050781	-0,0586080586080586	0,00418628990057562
26625	2051	2047	78812,5305175781	-0,0376766091051805	-0,054421768707483
26785	2053	2037	78817,4133300781	-0,0293040293040293	-0,0962846677132392
26945	2045	2054	78822,2961425781	-0,0627943485086342	-0,0251177394034537
27105	2043	2067	78827,1789550781	-0,0711669283097855	0,0293040293040293
27265	2048	2052	78832,0617675781	-0,0502354788069074	-0,0334903192046049
27425	2058	2035	78836,9445800781	-0,00837257980115123	-0,10465724751439
27585	2051	2053	78841,8273925781	-0,0376766091051805	-0,0293040293040293
27745	2044	2070	78846,7102050781	-0,0669806384092098	0,0418628990057562
27905	2038	2054	78851,5930175781	-0,0920983778126635	-0,0251177394034537
28065	2051	2035	78856,4758300781	-0,0376766091051805	-0,10465724751439
28225	2040	2047	78861,3586425781	-0,0837257980115123	-0,054421768707483
28385	2040	2067	78866,2414550781	-0,0837257980115123	0,0293040293040293
28545	2045	2054	78871,1242675781	-0,0627943485086342	-0,0251177394034537
28705	2056	2035	78876,0070800781	-0,0167451596023025	-0,10465724751439
28865	2050	2047	78880,8898925781	-0,0418628990057562	-0,054421768707483
29025	2040	2069	78885,7727050781	-0,0837257980115123	0,0376766091051805
29185	2038	2051	78890,6555175781	-0,0920983778126635	-0,0376766091051805
29345	2052	2032	78895,5383300781	-0,0334903192046049	-0,117216117216117
29505	2055	2042	78900,4211425781	-0,0209314495028781	-0,0753532182103611
29665	2043	2065	78905,3039550781	-0,0711669283097855	0,0209314495028781
29825	2044	2057	78910,1867675781	-0,0669806384092098	-0,0125588697017268
29985	2053	2029	78915,0695800781	-0,0293040293040293	-0,129774986917844
30145	2056	2035	78919,9523925781	-0,0167451596023025	-0,10465724751439
30305	2047	2064	78924,8352050781	-0,054421768707483	0,0167451596023025
30465	2044	2061	78929,7180175781	-0,0669806384092098	0,00418628990057562
30625	2059	2034	78934,6008300781	-0,00418628990057562	-0,108843537414966
30785	2059	2037	78939,4836425781	-0,00418628990057562	-0,0962846677132392
30945	2046	2067	78944,3664550781	-0,0586080586080586	0,0293040293040293
31105	2046	2068	78949,2492675781	-0,0586080586080586	0,0334903192046049
31265	2057	2037	78954,1320800781	-0,0125588697017268	-0,0962846677132392
31425	2059	2038	78959,0148925781	-0,00418628990057562	-0,0920983778126635
31585	2040	2063	78963,8977050781	-0,0837257980115123	0,0125588697017268
31745	2040	2068	78968,7805175781	-0,0837257980115123	0,0334903192046049
31905	2055	2043	78973,6633300781	-0,0209314495028781	-0,0711669283097855
32065	2058	2036	78978,5461425781	-0,00837257980115123	-0,100470957613815
32225	2050	2064	78983,4289550781	-0,0418628990057562	0,0167451596023025
32385	2046	2072	78988,3117675781	-0,0586080586080586	0,0502354788069074
32545	2054	2045	78993,1945800781	-0,0251177394034537	-0,0627943485086342
32705	2056	2033	78998,0773925781	-0,0167451596023025	-0,113029827315542
32865	2042	2060	79002,9602050781	-0,0753532182103611	0
33025	2044	2073	79007,8430175781	-0,0669806384092098	0,054421768707483
33185	2054	2049	79012,7258300781	-0,0251177394034537	-0,0460491889063318
33345	2061	2031	79017,6086425781	0,00418628990057562	-0,121402407116693
33505	2049	2053	79022,4914550781	-0,0460491889063318	-0,0293040293040293
33665	2044	2069	79027,3742675781	-0,0669806384092098	0,0376766091051805
33825	2050	2046	79032,2570800781	-0,0418628990057562	-0,0586080586080586
33985	2056	2031	79037,1398925781	-0,0167451596023025	-0,121402407116693
34145	2052	2049	79042,0227050781	-0,0334903192046049	-0,0460491889063318
34305	2048	2070	79046,9055175781	-0,0502354788069074	0,0418628990057562
34465	2053	2051	79051,7883300781	-0,0293040293040293	-0,0376766091051805
34625	2064	2032	79056,6711425781	0,0167451596023025	-0,117216117216117
34785	2056	2049	79061,5539550781	-0,0167451596023025	-0,0460491889063318
34945	2046	2063	79066,4367675781	-0,0586080586080586	0,0125588697017268
35105	2039	2044	79071,3195800781	-0,0879120879120879	-0,0669806384092098
35265	2050	2027	79076,2023925781	-0,0418628990057562	-0,138147566718995
35425	2055	2042	79081,0852050781	-0,0209314495028781	-0,0753532182103611
35585	2044	2064	79085,9680175781	-0,0669806384092098	0,0167451596023025
35745	2049	2054	79090,8508300781	-0,0460491889063318	-0,0251177394034537
35905	2060	2031	79095,7336425781	0	-0,121402407116693
36065	2062	2043	79100,6164550781	0,00837257980115123	-0,0711669283097855
36225	2042	2064	79105,4992675781	-0,0753532182103611	0,0167451596023025
36385	2046	2059	79110,3820800781	-0,0586080586080586	-0,00418628990057562
36545	2060	2036	79115,2648925781	0	-0,100470957613815
36705	2063	2043	79120,1477050781	0,0125588697017268	-0,0711669283097855
36865	2051	2067	79125,0305175781	-0,0376766091051805	0,0293040293040293
37025	2048	2063	79129,9133300781	-0,0502354788069074	0,0125588697017268
37185	2060	2037	79134,7961425781	0	-0,0962846677132392
37345	2057	2039	79139,6789550781	-0,0125588697017268	-0,0879120879120879
37505	2044	2067	79144,5617675781	-0,0669806384092098	0,0293040293040293
37665	2043	2064	79149,4445800781	-0,0711669283097855	0,0167451596023025
37825	2055	2034	79154,3273925781	-0,0209314495028781	-0,108843537414966
37985	2058	2036	79159,2102050781	-0,00837257980115123	-0,100470957613815
38145	2049	2067	79164,0930175781	-0,0460491889063318	0,0293040293040293
38305	2044	2068	79168,9758300781	-0,0669806384092098	0,0334903192046049
38465	2054	2041	79173,8586425781	-0,0251177394034537	-0,0795395081109367
38625	2048	2033	79178,7414550781	-0,0502354788069074	-0,113029827315542
38785	2039	2058	79183,6242675781	-0,0879120879120879	-0,00837257980115123
38945	2039	2068	79188,5070800781	-0,0879120879120879	0,0334903192046049
39105	2050	2042	79193,3898925781	-0,0418628990057562	-0,0753532182103611
39265	2056	2033	79198,2727050781	-0,0167451596023025	-0,113029827315542
39425	2052	2062	79203,1555175781	-0,0334903192046049	0,00837257980115123
39585	2045	2074	79208,0383300781	-0,0627943485086342	0,0586080586080586
39745	2056	2047	79212,9211425781	-0,0167451596023025	-0,054421768707483
39905	2065	2037	79217,8039550781	0,0209314495028781	-0,0962846677132392
40065	2048	2059	79222,6867675781	-0,0502354788069074	-0,00418628990057562
40225	2041	2075	79227,5695800781	-0,0795395081109367	0,0627943485086342
40385	2053	2050	79232,4523925781	-0,0293040293040293	-0,0418628990057562
40545	2063	2031	79237,3352050781	0,0125588697017268	-0,121402407116693
40705	2059	2058	79242,2180175781	-0,00418628990057562	-0,00837257980115123
40865	2049	2079	79247,1008300781	-0,0460491889063318	0,0795395081109367
41025	2059	2055	79251,9836425781	-0,00418628990057562	-0,0209314495028781
41185	2065	2029	79256,8664550781	0,0209314495028781	-0,129774986917844
41345	2054	2053	79261,7492675781	-0,0251177394034537	-0,0293040293040293
41505	2049	2081	79266,6320800781	-0,0460491889063318	0,0879120879120879
41665	2057	2062	79271,5148925781	-0,0125588697017268	0,00837257980115123
41825	2063	2031	79276,3977050781	0,0125588697017268	-0,121402407116693
41985	2062	2049	79281,2805175781	0,00837257980115123	-0,0460491889063318
42145	2056	2081	79286,1633300781	-0,0167451596023025	0,0879120879120879
42305	2053	2063	79291,0461425781	-0,0293040293040293	0,0125588697017268
42465	2063	2032	79295,9289550781	0,0125588697017268	-0,117216117216117
42625	2052	2045	79300,8117675781	-0,0334903192046049	-0,0627943485086342
42785	2051	2078	79305,6945800781	-0,0376766091051805	0,0753532182103611
42945	2052	2067	79310,5773925781	-0,0334903192046049	0,0293040293040293
43105	2059	2029	79315,4602050781	-0,00418628990057562	-0,129774986917844
43265	2058	2042	79320,3430175781	-0,00837257980115123	-0,0753532182103611
43425	2058	2084	79325,2258300781	-0,00837257980115123	0,100470957613815
43585	2057	2070	79330,1086425781	-0,0125588697017268	0,0418628990057562
43745	2060	2029	79334,9914550781	0	-0,129774986917844
43905	2051	2038	79339,8742675781	-0,0376766091051805	-0,0920983778126635
44065	2056	2075	79344,7570800781	-0,0167451596023025	0,0627943485086342
44225	2055	2070	79349,6398925781	-0,0209314495028781	0,0418628990057562
44385	2055	2028	79354,5227050781	-0,0209314495028781	-0,13396127681842
44545	2058	2028	79359,4055175781	-0,00837257980115123	-0,13396127681842
44705	2053	2066	79364,2883300781	-0,0293040293040293	0,0251177394034537
44865	2055	2071	79369,1711425781	-0,0209314495028781	0,0460491889063318
45025	2056	2029	79374,0539550781	-0,0167451596023025	-0,129774986917844
45185	2058	2021	79378,9367675781	-0,00837257980115123	-0,163265306122449
45345	2046	2059	79383,8195800781	-0,0586080586080586	-0,00418628990057562
45505	2044	2071	79388,7023925781	-0,0669806384092098	0,0460491889063318
45665	2055	2032	79393,5852050781	-0,0209314495028781	-0,117216117216117
45825	2055	2019	79398,4680175781	-0,0209314495028781	-0,1716378859236
45985	2057	2059	79403,3508300781	-0,0125588697017268	-0,00418628990057562
46145	2053	2075	79408,2336425781	-0,0293040293040293	0,0627943485086342
46305	2055	2041	79413,1164550781	-0,0209314495028781	-0,0795395081109367
46465	2056	2025	79417,9992675781	-0,0167451596023025	-0,146520146520147
46625	2052	2058	79422,8820800781	-0,0334903192046049	-0,00837257980115123
46785	2048	2076	79427,7648925781	-0,0502354788069074	0,0669806384092098
46945	2052	2047	79432,6477050781	-0,0334903192046049	-0,054421768707483
47105	2056	2022	79437,5305175781	-0,0167451596023025	-0,159079016221873
47265	2056	2057	79442,4133300781	-0,0167451596023025	-0,0125588697017268
47425	2053	2080	79447,2961425781	-0,0293040293040293	0,0837257980115123
47585	2055	2051	79452,1789550781	-0,0209314495028781	-0,0376766091051805
47745	2056	2026	79457,0617675781	-0,0167451596023025	-0,142333856619571
47905	2054	2054	79461,9445800781	-0,0251177394034537	-0,0251177394034537
48065	2050	2083	79466,8273925781	-0,0418628990057562	0,0962846677132392
48225	2051	2059	79471,7102050781	-0,0376766091051805	-0,00418628990057562
48385	2061	2030	79476,5930175781	0,00418628990057562	-0,125588697017268
48545	2054	2054	79481,4758300781	-0,0251177394034537	-0,0251177394034537
48705	2052	2083	79486,3586425781	-0,0334903192046049	0,0962846677132392
48865	2050	2061	79491,2414550781	-0,0418628990057562	0,00418628990057562
49025	2048	2028	79496,1242675781	-0,0502354788069074	-0,13396127681842
49185	2050	2047	79501,0070800781	-0,0418628990057562	-0,054421768707483
49345	2043	2080	79505,8898925781	-0,0711669283097855	0,0837257980115123
49505	2053	2065	79510,7727050781	-0,0293040293040293	0,0209314495028781
49665	2054	2030	79515,6555175781	-0,0251177394034537	-0,125588697017268
49825	2055	2040	79520,5383300781	-0,0209314495028781	-0,0837257980115123
49985	2050	2073	79525,4211425781	-0,0418628990057562	0,054421768707483
50145	2050	2066	79530,3039550781	-0,0418628990057562	0,0251177394034537
50305	2049	2027	79535,1867675781	-0,0460491889063318	-0,138147566718995
50465	2051	2034	79540,0695800781	-0,0376766091051805	-0,108843537414966
50625	2049	2073	79544,9523925781	-0,0460491889063318	0,054421768707483
50785	2049	2074	79549,8352050781	-0,0460491889063318	0,0586080586080586
50945	2052	2033	79554,7180175781	-0,0334903192046049	-0,113029827315542
51105	2052	2034	79559,6008300781	-0,0334903192046049	-0,108843537414966
51265	2048	2073	79564,4836425781	-0,0502354788069074	0,054421768707483
51425	2045	2076	79569,3664550781	-0,0627943485086342	0,0669806384092098
51585	2052	2037	79574,2492675781	-0,0334903192046049	-0,0962846677132392
51745	2056	2033	79579,1320800781	-0,0167451596023025	-0,113029827315542
51905	2050	2075	79584,0148925781	-0,0418628990057562	0,0627943485086342
52065	2050	2085	79588,8977050781	-0,0418628990057562	0,10465724751439
52225	2051	2044	79593,7805175781	-0,0376766091051805	-0,0669806384092098
52385	2053	2025	79598,6633300781	-0,0293040293040293	-0,146520146520147
52545	2049	2068	79603,5461425781	-0,0460491889063318	0,0334903192046049
52705	2047	2079	79608,4289550781	-0,054421768707483	0,0795395081109367
52865	2047	2040	79613,3117675781	-0,054421768707483	-0,0837257980115123
53025	2048	2024	79618,1945800781	-0,0502354788069074	-0,150706436420722
53185	2047	2060	79623,0773925781	-0,054421768707483	0
53345	2048	2084	79627,9602050781	-0,0502354788069074	0,100470957613815
53505	2051	2049	79632,8430175781	-0,0376766091051805	-0,0460491889063318
53665	2054	2025	79637,7258300781	-0,0251177394034537	-0,146520146520147
53825	2044	2058	79642,6086425781	-0,0669806384092098	-0,00837257980115123
53985	2042	2084	79647,4914550781	-0,0753532182103611	0,100470957613815
54145	2049	2055	79652,3742675781	-0,0460491889063318	-0,0209314495028781
54305	2053	2015	79657,2570800781	-0,0293040293040293	-0,188383045525903
54465	2052	2056	79662,1398925781	-0,0334903192046049	-0,0167451596023025
54625	2049	2090	79667,0227050781	-0,0460491889063318	0,125588697017268
54785	2049	2058	79671,9055175781	-0,0460491889063318	-0,00837257980115123
54945	2055	2022	79676,7883300781	-0,0209314495028781	-0,159079016221873
55105	2044	2047	79681,6711425781	-0,0669806384092098	-0,054421768707483
55265	2048	2090	79686,5539550781	-0,0502354788069074	0,125588697017268
55425	2051	2063	79691,4367675781	-0,0376766091051805	0,0125588697017268
55585	2051	2021	79696,3195800781	-0,0376766091051805	-0,163265306122449
55745	2052	2041	79701,2023925781	-0,0334903192046049	-0,0795395081109367
55905	2050	2089	79706,0852050781	-0,0418628990057562	0,121402407116693
56065	2051	2066	79710,9680175781	-0,0376766091051805	0,0251177394034537
56225	2050	2020	79715,8508300781	-0,0418628990057562	-0,167451596023025
56385	2046	2034	79720,7336425781	-0,0586080586080586	-0,108843537414966
56545	2050	2092	79725,6164550781	-0,0418628990057562	0,13396127681842
56705	2051	2074	79730,4992675781	-0,0376766091051805	0,0586080586080586
56865	2054	2023	79735,3820800781	-0,0251177394034537	-0,154892726321298
57025	2052	2035	79740,2648925781	-0,0334903192046049	-0,10465724751439
57185	2052	2093	79745,1477050781	-0,0334903192046049	0,138147566718995
57345	2052	2085	79750,0305175781	-0,0334903192046049	0,10465724751439
57505	2048	2029	79754,9133300781	-0,0502354788069074	-0,129774986917844
57665	2051	2031	79759,7961425781	-0,0376766091051805	-0,121402407116693
57825	2055	2091	79764,6789550781	-0,0209314495028781	0,129774986917844
57985	2053	2098	79769,5617675781	-0,0293040293040293	0,159079016221873
58145	2053	2042	79774,4445800781	-0,0293040293040293	-0,0753532182103611
58305	2048	2033	79779,3273925781	-0,0502354788069074	-0,113029827315542
58465	2056	2095	79784,2102050781	-0,0167451596023025	0,146520146520147
58625	2061	2115	79789,0930175781	0,00418628990057562	0,230245944531659
58785	2048	2046	79793,9758300781	-0,0502354788069074	-0,0586080586080586
58945	2052	2027	79798,8586425781	-0,0334903192046049	-0,138147566718995
59105	2060	2102	79803,7414550781	0	0,175824175824176
59265	2070	2137	79808,6242675781	0,0418628990057562	0,322344322344322
59425	2061	2070	79813,5070800781	0,00418628990057562	0,0418628990057562
59585	2064	2043	79818,3898925781	0,0167451596023025	-0,0711669283097855
59745	2076	2138	79823,2727050781	0,0669806384092098	0,326530612244898
59905	2094	2216	79828,1555175781	0,142333856619571	0,653061224489796
60065	2082	2147	79833,0383300781	0,0920983778126635	0,364207221350078
60225	2075	2093	79837,9211425781	0,0627943485086342	0,138147566718995
60385	2096	2208	79842,8039550781	0,150706436420722	0,619570905285191
60545	2109	2287	79847,6867675781	0,205128205128205	0,950287807430665
60705	2086	2183	79852,5695800781	0,108843537414966	0,514913657770801
60865	2075	2101	79857,4523925781	0,0627943485086342	0,1716378859236
61025	2086	2176	79862,3352050781	0,108843537414966	0,485609628466771
61185	2096	2251	79867,2180175781	0,150706436420722	0,799581371009943
61345	2076	2159	79872,1008300781	0,0669806384092098	0,414442700156986
61505	2061	2055	79876,9836425781	0,00418628990057562	-0,0209314495028781
61665	2074	2116	79881,8664550781	0,0586080586080586	0,234432234432234
61825	2088	2220	79886,7492675781	0,117216117216117	0,669806384092098
61985	2075	2134	79891,6320800781	0,0627943485086342	0,309785452642595
62145	2048	2015	79896,5148925781	-0,0502354788069074	-0,188383045525903
62305	2049	2059	79901,3977050781	-0,0460491889063318	-0,00418628990057562
62465	2069	2160	79906,2805175781	0,0376766091051805	0,418628990057561
62625	2044	2100	79911,1633300781	-0,0669806384092098	0,167451596023025
62785	2019	1972	79916,0461425781	-0,1716378859236	-0,368393511250654
62945	2028	2008	79920,9289550781	-0,13396127681842	-0,217687074829932
63105	2056	2142	79925,8117675781	-0,0167451596023025	0,3432757718472
63265	2050	2116	79930,6945800781	-0,0418628990057562	0,234432234432234
63425	2016	1994	79935,5773925781	-0,184196755625327	-0,276295133437991
63585	2025	2029	79940,4602050781	-0,146520146520147	-0,129774986917844
63745	2056	2179	79945,3430175781	-0,0167451596023025	0,498168498168498
63905	2055	2179	79950,2258300781	-0,0209314495028781	0,498168498168498
64065	2023	2065	79955,1086425781	-0,154892726321298	0,0209314495028781
64225	2026	2075	79959,9914550781	-0,142333856619571	0,0627943485086342
64385	2058	2209	79964,8742675781	-0,00837257980115123	0,623757195185767
64545	2059	2216	79969,7570800781	-0,00418628990057562	0,653061224489796
64705	2015	2083	79974,6398925781	-0,188383045525903	0,0962846677132392
64865	2052	2126	79979,5227050781	-0,0334903192046049	0,276295133437991
65025	2085	2255	79984,4055175781	0,10465724751439	0,816326530612245
65185	2082	2282	79989,2883300781	0,0920983778126635	0,929356357927787
65345	2062	2162	79994,1711425781	0,00837257980115123	0,427001569858713
65505	2067	2127	79999,0539550781	0,0293040293040293	0,280481423338566
129	2111	2243	80003,9367675781	0,213500784929356	0,766091051805338
289	2134	2279	80008,8195800781	0,309785452642595	0,91679748822606
449	2120	2161	80013,7023925781	0,251177394034537	0,422815279958137
609	2129	2103	80018,5852050781	0,288854003139717	0,180010465724751
769	2180	2199	80023,4680175781	0,502354788069074	0,581894296180011
929	2205	2230	80028,3508300781	0,607012035583464	0,711669283097855
1089	2160	2081	80033,2336425781	0,418628990057561	0,0879120879120879
1249	2108	1967	80038,1164550781	0,20094191522763	-0,389324960753532
1409	2101	2006	80042,9992675781	0,1716378859236	-0,226059654631083
1569	2076	2016	80047,8820800781	0,0669806384092098	-0,184196755625327
1729	1993	1876	80052,7648925781	-0,280481423338566	-0,770277341705913
1889	1920	1767	80057,6477050781	-0,586080586080586	-1,22658294086866
2049	1915	1818	80062,5305175781	-0,607012035583464	-1,0130821559393
2209	1920	1882	80067,4133300781	-0,586080586080586	-0,745159602302459
2369	1868	1810	80072,2961425781	-0,803767660910518	-1,0465724751439
2529	1834	1742	80077,1789550781	-0,946101517530089	-1,33124018838305
2689	1858	1815	80082,0617675781	-0,845630559916274	-1,02564102564103
2849	1890	1912	80086,9445800781	-0,711669283097855	-0,619570905285191
3009	1873	1880	80091,8273925781	-0,78283621140764	-0,753532182103611
3169	1853	1828	80096,7102050781	-0,866562009419152	-0,971219256933543
3329	1895	1911	80101,5930175781	-0,690737833594977	-0,623757195185767
3489	1957	2044	80106,4758300781	-0,431187859759288	-0,0669806384092098
3649	1981	2063	80111,3586425781	-0,330716902145474	0,0125588697017268
3809	1979	2026	80116,2414550781	-0,339089481946625	-0,142333856619571
3969	2024	2085	80121,1242675781	-0,150706436420722	0,10465724751439
4129	2082	2207	80126,0070800781	0,0920983778126635	0,615384615384615
4289	2091	2203	80130,8898925781	0,129774986917844	0,598639455782313
4449	2072	2133	80135,7727050781	0,0502354788069074	0,30559916274202
4609	2094	2169	80140,6555175781	0,142333856619571	0,456305599162742
4769	2138	2266	80145,5383300781	0,326530612244898	0,862375719518577
4929	2142	2258	80150,4211425781	0,3432757718472	0,828885400313972
5089	2106	2170	80155,3039550781	0,192569335426478	0,460491889063318
5249	2116	2175	80160,1867675781	0,234432234432234	0,481423338566196
5409	2156	2259	80165,0695800781	0,401883830455259	0,833071690214547
5569	2160	2257	80169,9523925781	0,418628990057561	0,824699110413396
5729	2116	2158	80174,8352050781	0,234432234432234	0,41025641025641
5889	2110	2143	80179,7180175781	0,209314495028781	0,347462061747776
6049	2150	2231	80184,6008300781	0,376766091051805	0,71585557299843
6209	2154	2240	80189,4836425781	0,393511250654108	0,753532182103611
6369	2110	2144	80194,3664550781	0,209314495028781	0,351648351648352
6529	2098	2115	80199,2492675781	0,159079016221873	0,230245944531659
6689	2134	2200	80204,1320800781	0,309785452642595	0,586080586080586
6849	2145	2216	80209,0148925781	0,355834641548927	0,653061224489796
7009	2098	2121	80213,8977050781	0,159079016221873	0,255363683935113
7169	2071	2076	80218,7805175781	0,0460491889063318	0,0669806384092098
7329	2114	2157	80223,6633300781	0,226059654631083	0,406070120355835
7489	2130	2195	80228,5461425781	0,293040293040293	0,565149136577708
7649	2088	2104	80233,4289550781	0,117216117216117	0,184196755625327
7809	2060	2049	80238,3117675781	0	-0,0460491889063318
7969	2098	2129	80243,1945800781	0,159079016221873	0,288854003139717
8129	2124	2180	80248,0773925781	0,267922553636839	0,502354788069074
8289	2085	2096	80252,9602050781	0,10465724751439	0,150706436420722
8449	2055	2028	80257,8430175781	-0,0209314495028781	-0,13396127681842
8609	2087	2100	80262,7258300781	0,113029827315542	0,167451596023025
8769	2122	2169	80267,6086425781	0,259549973835688	0,456305599162742
8929	2038	1996	80272,4914550781	-0,0920983778126635	-0,267922553636839
9089	1981	1920	80277,3742675781	-0,330716902145474	-0,586080586080586
9249	2023	2001	80282,2570800781	-0,154892726321298	-0,246991104133961
9409	2072	2094	80287,1398925781	0,0502354788069074	0,142333856619571
9569	2048	2040	80292,0227050781	-0,0502354788069074	-0,0837257980115123
9729	2007	1959	80296,9055175781	-0,221873364730508	-0,422815279958137
9889	2048	2021	80301,7883300781	-0,0502354788069074	-0,163265306122449
10049	2096	2118	80306,6711425781	0,150706436420722	0,242804814233386
10209	2068	2063	80311,5539550781	0,0334903192046049	0,0125588697017268
10369	2023	1968	80316,4367675781	-0,154892726321298	-0,385138670852957
10529	2030	2012	80321,3195800781	-0,125588697017268	-0,20094191522763
10689	2090	2114	80326,2023925781	0,125588697017268	0,226059654631083
10849	2071	2078	80331,0852050781	0,0460491889063318	0,0753532182103611
11009	2019	1973	80335,9680175781	-0,1716378859236	-0,364207221350078
11169	2036	2006	80340,8508300781	-0,100470957613815	-0,226059654631083
11329	2090	2109	80345,7336425781	0,125588697017268	0,205128205128205
11489	2080	2087	80350,6164550781	0,0837257980115123	0,113029827315542
11649	2020	1980	80355,4992675781	-0,167451596023025	-0,334903192046049
11809	2026	1990	80360,3820800781	-0,142333856619571	-0,293040293040293
11969	2083	2102	80365,2648925781	0,0962846677132392	0,175824175824176
12129	2079	2089	80370,1477050781	0,0795395081109367	0,121402407116693
12289	2019	1981	80375,0305175781	-0,1716378859236	-0,330716902145474
12449	2015	1977	80379,9133300781	-0,188383045525903	-0,347462061747776
12609	2073	2083	80384,7961425781	0,054421768707483	0,0962846677132392
12769	2079	2094	80389,6789550781	0,0795395081109367	0,142333856619571
12929	2021	1990	80394,5617675781	-0,163265306122449	-0,293040293040293
13089	2020	1975	80399,4445800781	-0,167451596023025	-0,355834641548927
13249	2078	2082	80404,3273925781	0,0753532182103611	0,0920983778126635
13409	2096	2108	80409,2102050781	0,150706436420722	0,20094191522763
13569	2042	2007	80414,0930175781	-0,0753532182103611	-0,221873364730508
13729	2020	1972	80418,9758300781	-0,167451596023025	-0,368393511250654
13889	2068	2072	80423,8586425781	0,0334903192046049	0,0502354788069074
14049	2092	2118	80428,7414550781	0,13396127681842	0,242804814233386
14209	2036	2018	80433,6242675781	-0,100470957613815	-0,175824175824176
14369	2023	1973	80438,5070800781	-0,154892726321298	-0,364207221350078
14529	2076	2069	80443,3898925781	0,0669806384092098	0,0376766091051805
14689	2107	2126	80448,2727050781	0,196755625327054	0,276295133437991
14849	2058	2039	80453,1555175781	-0,00837257980115123	-0,0879120879120879
15009	2024	1978	80458,0383300781	-0,150706436420722	-0,3432757718472
15169	2076	2067	80462,9211425781	0,0669806384092098	0,0293040293040293
15329	2107	2134	80467,8039550781	0,196755625327054	0,309785452642595
15489	2062	2051	80472,6867675781	0,00837257980115123	-0,0376766091051805
15649	2016	1975	80477,5695800781	-0,184196755625327	-0,355834641548927
15809	2062	2051	80482,4523925781	0,00837257980115123	-0,0376766091051805
15969	2110	2128	80487,3352050781	0,209314495028781	0,284667713239142
16129	2069	2061	80492,2180175781	0,0376766091051805	0,00418628990057562
16289	2022	1972	80497,1008300781	-0,159079016221873	-0,368393511250654
16449	2057	2041	80501,9836425781	-0,0125588697017268	-0,0795395081109367
16609	2107	2129	80506,8664550781	0,196755625327054	0,288854003139717
16769	2072	2074	80511,7492675781	0,0502354788069074	0,0586080586080586
16929	2022	1983	80516,6320800781	-0,159079016221873	-0,322344322344322
17089	2051	2029	80521,5148925781	-0,0376766091051805	-0,129774986917844
17249	2100	2120	80526,3977050781	0,167451596023025	0,251177394034537
17409	2078	2080	80531,2805175781	0,0753532182103611	0,0837257980115123
17569	2022	1980	80536,1633300781	-0,159079016221873	-0,334903192046049
17729	2037	2013	80541,0461425781	-0,0962846677132392	-0,196755625327054
17889	2094	2114	80545,9289550781	0,142333856619571	0,226059654631083
18049	2078	2089	80550,8117675781	0,0753532182103611	0,121402407116693
18209	2024	1988	80555,6945800781	-0,150706436420722	-0,301412872841444
18369	2034	1999	80560,5773925781	-0,108843537414966	-0,255363683935113
18529	2094	2113	80565,4602050781	0,142333856619571	0,221873364730508
18689	2090	2103	80570,3430175781	0,125588697017268	0,180010465724751
18849	2029	2001	80575,2258300781	-0,129774986917844	-0,246991104133961
19009	2025	2001	80580,1086425781	-0,146520146520147	-0,246991104133961
19169	2084	2109	80584,9914550781	0,100470957613815	0,205128205128205
19329	2091	2119	80589,8742675781	0,129774986917844	0,246991104133961
19489	2037	2018	80594,7570800781	-0,0962846677132392	-0,175824175824176
19649	2028	2003	80599,6398925781	-0,13396127681842	-0,23861852433281
19809	2088	2105	80604,5227050781	0,117216117216117	0,188383045525903
19969	2102	2128	80609,4055175781	0,175824175824176	0,284667713239142
20129	2046	2026	80614,2883300781	-0,0586080586080586	-0,142333856619571
20289	2020	1996	80619,1711425781	-0,167451596023025	-0,267922553636839
20449	2080	2089	80624,0539550781	0,0837257980115123	0,121402407116693
20609	2106	2121	80628,9367675781	0,192569335426478	0,255363683935113
20769	2048	2025	80633,8195800781	-0,0502354788069074	-0,146520146520147
20929	2020	1981	80638,7023925781	-0,167451596023025	-0,330716902145474
21089	2009	1992	80643,5852050781	-0,213500784929356	-0,284667713239142
21249	2098	2115	80648,4680175781	0,159079016221873	0,230245944531659
21409	2038	2015	80653,3508300781	-0,0920983778126635	-0,188383045525903
21569	2002	1963	80658,2336425781	-0,242804814233386	-0,406070120355835
21729	2059	2053	80663,1164550781	-0,00418628990057562	-0,0293040293040293
21889	2097	2114	80667,9992675781	0,154892726321298	0,226059654631083
22049	2051	2041	80672,8820800781	-0,0376766091051805	-0,0795395081109367
22209	2013	1976	80677,7648925781	-0,196755625327054	-0,351648351648352
22369	2056	2045	80682,6477050781	-0,0167451596023025	-0,0627943485086342
22529	2099	2116	80687,5305175781	0,163265306122449	0,234432234432234
22689	2059	2047	80692,4133300781	-0,00418628990057562	-0,054421768707483
22849	2016	1974	80697,2961425781	-0,184196755625327	-0,360020931449503
23009	2048	2033	80702,1789550781	-0,0502354788069074	-0,113029827315542
23169	2095	2115	80707,0617675781	0,146520146520147	0,230245944531659
23329	2066	2061	80711,9445800781	0,0251177394034537	0,00418628990057562
23489	2013	1972	80716,8273925781	-0,196755625327054	-0,368393511250654
23649	2044	2021	80721,7102050781	-0,0669806384092098	-0,163265306122449
23809	2097	2110	80726,5930175781	0,154892726321298	0,209314495028781
23969	2070	2069	80731,4758300781	0,0418628990057562	0,0376766091051805
24129	2014	1977	80736,3586425781	-0,192569335426478	-0,347462061747776
24289	2025	2010	80741,2414550781	-0,146520146520147	-0,209314495028781
24449	2082	2102	80746,1242675781	0,0920983778126635	0,175824175824176
24609	2067	2072	80751,0070800781	0,0293040293040293	0,0502354788069074
24769	2008	1971	80755,8898925781	-0,217687074829932	-0,37257980115123
24929	2013	1988	80760,7727050781	-0,196755625327054	-0,301412872841444
25089	2067	2076	80765,6555175781	0,0293040293040293	0,0669806384092098
25249	2043	2049	80770,5383300781	-0,0711669283097855	-0,0460491889063318
25409	1973	1939	80775,4211425781	-0,364207221350078	-0,506541077969649
25569	1951	1916	80780,3039550781	-0,456305599162742	-0,602825745682889
25729	1965	1972	80785,1867675781	-0,397697540554683	-0,368393511250654
25889	1952	1949	80790,0695800781	-0,452119309262166	-0,464678178963893
26049	1879	1830	80794,9523925781	-0,757718472004186	-0,962846677132391
26209	1856	1807	80799,8352050781	-0,854003139717425	-1,05913134484563
26369	1914	1892	80804,7180175781	-0,61119832548404	-0,703296703296703
26529	1932	1916	80809,6008300781	-0,535845107273679	-0,602825745682889
26689	1901	1846	80814,4836425781	-0,665620094191523	-0,895866038723182
26849	1910	1845	80819,3664550781	-0,627943485086342	-0,900052328623757
27009	1956	1927	80824,2492675781	-0,435374149659864	-0,556776556776557
27169	1961	1939	80829,1320800781	-0,414442700156986	-0,506541077969649
27329	1902	1855	80834,0148925781	-0,661433804290947	-0,858189429618001
27489	1877	1818	80838,8977050781	-0,766091051805338	-1,0130821559393
27649	1917	1877	80843,7805175781	-0,598639455782313	-0,766091051805338
27809	1937	1902	80848,6633300781	-0,514913657770801	-0,661433804290947
27969	1896	1836	80853,5461425781	-0,686551543694401	-0,937728937728938
28129	1878	1801	80858,4289550781	-0,761904761904762	-1,08424908424908
28289	1916	1865	80863,3117675781	-0,602825745682889	-0,816326530612245
28449	1941	1909	80868,1945800781	-0,498168498168498	-0,632129774986918
28609	1908	1855	80873,0773925781	-0,636316064887493	-0,858189429618001
28769	1898	1821	80877,9602050781	-0,67817896389325	-1,00052328623757
28929	1936	1878	80882,8430175781	-0,519099947671376	-0,761904761904762
29089	1962	1930	80887,7258300781	-0,41025641025641	-0,54421768707483
29249	1945	1891	80892,6086425781	-0,481423338566196	-0,707482993197279
29409	1926	1854	80897,4914550781	-0,560962846677132	-0,862375719518577
29569	1955	1902	80902,3742675781	-0,43956043956044	-0,661433804290947
29729	1987	1955	80907,2570800781	-0,30559916274202	-0,43956043956044
29889	1972	1924	80912,1398925781	-0,368393511250654	-0,569335426478284
30049	1949	1885	80917,0227050781	-0,464678178963893	-0,732600732600733
30209	1976	1923	80921,9055175781	-0,351648351648352	-0,573521716378859
30369	2006	1969	80926,7883300781	-0,226059654631083	-0,380952380952381
30529	2000	1954	80931,6711425781	-0,251177394034537	-0,443746729461015
30689	1979	1915	80936,5539550781	-0,339089481946625	-0,607012035583464
30849	1996	1940	80941,4367675781	-0,267922553636839	-0,502354788069074
31009	2021	1992	80946,3195800781	-0,163265306122449	-0,284667713239142
31169	2018	1985	80951,2023925781	-0,175824175824176	-0,313971742543171
31329	1995	1942	80956,0852050781	-0,272108843537415	-0,493982208267923
31489	2016	1967	80960,9680175781	-0,184196755625327	-0,389324960753532
31649	2044	2023	80965,8508300781	-0,0669806384092098	-0,154892726321298
31809	2045	2017	80970,7336425781	-0,0627943485086342	-0,180010465724751
31969	2024	1977	80975,6164550781	-0,150706436420722	-0,347462061747776
32129	2026	1988	80980,4992675781	-0,142333856619571	-0,301412872841444
32289	2057	2041	80985,3820800781	-0,0125588697017268	-0,0795395081109367
32449	2052	2041	80990,2648925781	-0,0334903192046049	-0,0795395081109367
32609	2031	1996	80995,1477050781	-0,121402407116693	-0,267922553636839
32769	2036	1999	81000,0305175781	-0,100470957613815	-0,255363683935113
32929	2064	2047	81004,9133300781	0,0167451596023025	-0,054421768707483
33089	2071	2056	81009,7961425781	0,0460491889063318	-0,0167451596023025
33249	2047	2010	81014,6789550781	-0,054421768707483	-0,209314495028781
33409	2044	2006	81019,5617675781	-0,0669806384092098	-0,226059654631083
33569	2064	2054	81024,4445800781	0,0167451596023025	-0,0251177394034537
33729	2071	2066	81029,3273925781	0,0460491889063318	0,0251177394034537
33889	2054	2020	81034,2102050781	-0,0251177394034537	-0,167451596023025
34049	2043	2011	81039,0930175781	-0,0711669283097855	-0,205128205128205
34209	2064	2052	81043,9758300781	0,0167451596023025	-0,0334903192046049
34369	2076	2068	81048,8586425781	0,0669806384092098	0,0334903192046049
34529	2053	2031	81053,7414550781	-0,0293040293040293	-0,121402407116693
34689	2041	2013	81058,6242675781	-0,0795395081109367	-0,196755625327054
34849	2061	2054	81063,5070800781	0,00418628990057562	-0,0251177394034537
35009	2079	2073	81068,3898925781	0,0795395081109367	0,054421768707483
35169	2061	2039	81073,2727050781	0,00418628990057562	-0,0879120879120879
35329	2043	2020	81078,1555175781	-0,0711669283097855	-0,167451596023025
35489	2065	2053	81083,0383300781	0,0209314495028781	-0,0293040293040293
35649	2084	2082	81087,9211425781	0,100470957613815	0,0920983778126635
35809	2062	2051	81092,8039550781	0,00837257980115123	-0,0376766091051805
35969	2042	2021	81097,6867675781	-0,0753532182103611	-0,163265306122449
36129	2060	2050	81102,5695800781	0	-0,0418628990057562
36289	2083	2082	81107,4523925781	0,0962846677132392	0,0920983778126635
36449	2070	2055	81112,3352050781	0,0418628990057562	-0,0209314495028781
36609	2052	2024	81117,2180175781	-0,0334903192046049	-0,150706436420722
36769	2066	2050	81122,1008300781	0,0251177394034537	-0,0418628990057562
36929	2089	2084	81126,9836425781	0,121402407116693	0,100470957613815
37089	2072	2063	81131,8664550781	0,0502354788069074	0,0125588697017268
37249	2057	2032	81136,7492675781	-0,0125588697017268	-0,117216117216117
37409	2065	2049	81141,6320800781	0,0209314495028781	-0,0460491889063318
37569	2089	2087	81146,5148925781	0,121402407116693	0,113029827315542
37729	2079	2074	81151,3977050781	0,0795395081109367	0,0586080586080586
37889	2058	2037	81156,2805175781	-0,00837257980115123	-0,0962846677132392
38049	2062	2050	81161,1633300781	0,00837257980115123	-0,0418628990057562
38209	2088	2085	81166,0461425781	0,117216117216117	0,10465724751439
38369	2079	2076	81170,9289550781	0,0795395081109367	0,0669806384092098
38529	2056	2038	81175,8117675781	-0,0167451596023025	-0,0920983778126635
38689	2059	2046	81180,6945800781	-0,00418628990057562	-0,0586080586080586
38849	2078	2086	81185,5773925781	0,0753532182103611	0,108843537414966
39009	2086	2080	81190,4602050781	0,108843537414966	0,0837257980115123
39169	2061	2043	81195,3430175781	0,00418628990057562	-0,0711669283097855
39329	2061	2044	81200,2258300781	0,00418628990057562	-0,0669806384092098
39489	2080	2080	81205,1086425781	0,0837257980115123	0,0837257980115123
39649	2083	2086	81209,9914550781	0,0962846677132392	0,108843537414966
39809	2059	2047	81214,8742675781	-0,00418628990057562	-0,054421768707483
39969	2055	2042	81219,7570800781	-0,0209314495028781	-0,0753532182103611
40129	2077	2079	81224,6398925781	0,0711669283097855	0,0795395081109367
40289	2083	2086	81229,5227050781	0,0962846677132392	0,108843537414966
40449	2060	2051	81234,4055175781	0	-0,0376766091051805
40609	2056	2043	81239,2883300781	-0,0167451596023025	-0,0711669283097855
40769	2076	2077	81244,1711425781	0,0669806384092098	0,0711669283097855
40929	2083	2088	81249,0539550781	0,0962846677132392	0,117216117216117
41089	2060	2055	81253,9367675781	0	-0,0209314495028781
41249	2053	2039	81258,8195800781	-0,0293040293040293	-0,0879120879120879
41409	2072	2069	81263,7023925781	0,0502354788069074	0,0376766091051805
41569	2081	2085	81268,5852050781	0,0879120879120879	0,10465724751439
41729	2060	2055	81273,4680175781	0	-0,0209314495028781
41889	2052	2038	81278,3508300781	-0,0334903192046049	-0,0920983778126635
42049	2072	2067	81283,2336425781	0,0502354788069074	0,0293040293040293
42209	2084	2083	81288,1164550781	0,100470957613815	0,0962846677132392
42369	2070	2058	81292,9992675781	0,0418628990057562	-0,00837257980115123
42529	2058	2041	81297,8820800781	-0,00837257980115123	-0,0795395081109367
42689	2071	2066	81302,7648925781	0,0460491889063318	0,0251177394034537
42849	2076	2085	81307,6477050781	0,0669806384092098	0,10465724751439
43009	2069	2062	81312,5305175781	0,0376766091051805	0,00837257980115123
43169	2058	2041	81317,4133300781	-0,00837257980115123	-0,0795395081109367
43329	2070	2059	81322,2961425781	0,0418628990057562	-0,00418628990057562
43489	2084	2080	81327,1789550781	0,100470957613815	0,0837257980115123
43649	2075	2062	81332,0617675781	0,0627943485086342	0,00837257980115123
43809	2061	2041	81336,9445800781	0,00418628990057562	-0,0795395081109367
43969	2059	2054	81341,8273925781	-0,00418628990057562	-0,0251177394034537
44129	2080	2074	81346,7102050781	0,0837257980115123	0,0586080586080586
44289	2072	2064	81351,5930175781	0,0502354788069074	0,0167451596023025
44449	2058	2042	81356,4758300781	-0,00837257980115123	-0,0753532182103611
44609	2064	2050	81361,3586425781	0,0167451596023025	-0,0418628990057562
44769	2080	2070	81366,2414550781	0,0837257980115123	0,0418628990057562
44929	2072	2060	81371,1242675781	0,0502354788069074	0
45089	2057	2038	81376,0070800781	-0,0125588697017268	-0,0920983778126635
45249	2056	2043	81380,8898925781	-0,0167451596023025	-0,0711669283097855
45409	2065	2061	81385,7727050781	0,0209314495028781	0,00418628990057562
45569	2069	2055	81390,6555175781	0,0376766091051805	-0,0209314495028781
45729	2051	2037	81395,5383300781	-0,0376766091051805	-0,0962846677132392
45889	2053	2038	81400,4211425781	-0,0293040293040293	-0,0920983778126635
46049	2072	2055	81405,3039550781	0,0502354788069074	-0,0209314495028781
46209	2070	2052	81410,1867675781	0,0418628990057562	-0,0334903192046049
46369	2048	2038	81415,0695800781	-0,0502354788069074	-0,0920983778126635
46529	2042	2039	81419,9523925781	-0,0753532182103611	-0,0879120879120879
46689	2061	2050	81424,8352050781	0,00418628990057562	-0,0418628990057562
46849	2068	2052	81429,7180175781	0,0334903192046049	-0,0334903192046049
47009	2056	2041	81434,6008300781	-0,0167451596023025	-0,0795395081109367
47169	2050	2040	81439,4836425781	-0,0418628990057562	-0,0837257980115123
47329	2064	2048	81444,3664550781	0,0167451596023025	-0,0502354788069074
47489	2069	2049	81449,2492675781	0,0376766091051805	-0,0460491889063318
47649	2055	2044	81454,1320800781	-0,0209314495028781	-0,0669806384092098
47809	2045	2039	81459,0148925781	-0,0627943485086342	-0,0879120879120879
47969	2053	2049	81463,8977050781	-0,0293040293040293	-0,0460491889063318
48129	2068	2053	81468,7805175781	0,0334903192046049	-0,0293040293040293
48289	2057	2050	81473,6633300781	-0,0125588697017268	-0,0418628990057562
48449	2051	2047	81478,5461425781	-0,0376766091051805	-0,054421768707483
48609	2058	2052	81483,4289550781	-0,00837257980115123	-0,0334903192046049
48769	2069	2057	81488,3117675781	0,0376766091051805	-0,0125588697017268
48929	2056	2053	81493,1945800781	-0,0167451596023025	-0,0293040293040293
49089	2048	2047	81498,0773925781	-0,0502354788069074	-0,054421768707483
49249	2060	2056	81502,9602050781	0	-0,0167451596023025
49409	2071	2060	81507,8430175781	0,0460491889063318	0
49569	2065	2058	81512,7258300781	0,0209314495028781	-0,00837257980115123
49729	2056	2055	81517,6086425781	-0,0167451596023025	-0,0209314495028781
49889	2064	2057	81522,4914550781	0,0167451596023025	-0,0125588697017268
50049	2068	2062	81527,3742675781	0,0334903192046049	0,00837257980115123
50209	2066	2060	81532,2570800781	0,0251177394034537	0
50369	2055	2055	81537,1398925781	-0,0209314495028781	-0,0209314495028781
50529	2060	2057	81542,0227050781	0	-0,0125588697017268
50689	2072	2058	81546,9055175781	0,0502354788069074	-0,00837257980115123
50849	2069	2056	81551,7883300781	0,0376766091051805	-0,0167451596023025
51009	2067	2057	81556,6711425781	0,0293040293040293	-0,0125588697017268
51169	2069	2054	81561,5539550781	0,0376766091051805	-0,0251177394034537
51329	2077	2054	81566,4367675781	0,0711669283097855	-0,0251177394034537
51489	2068	2059	81571,3195800781	0,0334903192046049	-0,00418628990057562
51649	2055	2055	81576,2023925781	-0,0209314495028781	-0,0209314495028781
51809	2064	2055	81581,0852050781	0,0167451596023025	-0,0209314495028781
51969	2068	2050	81585,9680175781	0,0334903192046049	-0,0418628990057562
52129	2068	2050	81590,8508300781	0,0334903192046049	-0,0418628990057562
52289	2062	2053	81595,7336425781	0,00837257980115123	-0,0293040293040293
52449	2058	2047	81600,6164550781	-0,00837257980115123	-0,054421768707483
52609	2062	2044	81605,4992675781	0,00837257980115123	-0,0669806384092098
52769	2060	2043	81610,3820800781	0	-0,0711669283097855
52929	2052	2045	81615,2648925781	-0,0334903192046049	-0,0627943485086342
53089	2050	2043	81620,1477050781	-0,0418628990057562	-0,0711669283097855
53249	2060	2038	81625,0305175781	0	-0,0920983778126635
53409	2061	2039	81629,9133300781	0,00418628990057562	-0,0879120879120879
53569	2056	2046	81634,7961425781	-0,0167451596023025	-0,0586080586080586
53729	2050	2046	81639,6789550781	-0,0418628990057562	-0,0586080586080586
53889	2057	2036	81644,5617675781	-0,0125588697017268	-0,100470957613815
54049	2060	2037	81649,4445800781	0	-0,0962846677132392
54209	2055	2046	81654,3273925781	-0,0209314495028781	-0,0586080586080586
54369	2054	2052	81659,2102050781	-0,0251177394034537	-0,0334903192046049
54529	2068	2046	81664,0930175781	0,0334903192046049	-0,0586080586080586
54689	2072	2039	81668,9758300781	0,0502354788069074	-0,0879120879120879
54849	2061	2047	81673,8586425781	0,00418628990057562	-0,054421768707483
55009	2060	2052	81678,7414550781	0	-0,0334903192046049
55169	2066	2041	81683,6242675781	0,0251177394034537	-0,0795395081109367
55329	2067	2037	81688,5070800781	0,0293040293040293	-0,0962846677132392
55489	2059	2046	81693,3898925781	-0,00418628990057562	-0,0586080586080586
55649	2056	2047	81698,2727050781	-0,0167451596023025	-0,054421768707483
55809	2058	2038	81703,1555175781	-0,00837257980115123	-0,0920983778126635
55969	2064	2028	81708,0383300781	0,0167451596023025	-0,13396127681842
56129	2062	2037	81712,9211425781	0,00837257980115123	-0,0962846677132392
56289	2061	2047	81717,8039550781	0,00418628990057562	-0,054421768707483
56449	2054	2034	81722,6867675781	-0,0251177394034537	-0,108843537414966
56609	2052	2022	81727,5695800781	-0,0334903192046049	-0,159079016221873
56769	2056	2031	81732,4523925781	-0,0167451596023025	-0,121402407116693
56929	2060	2046	81737,3352050781	0	-0,0586080586080586
57089	2060	2035	81742,2180175781	0	-0,10465724751439
57249	2062	2021	81747,1008300781	0,00837257980115123	-0,163265306122449
57409	2061	2030	81751,9836425781	0,00418628990057562	-0,125588697017268
57569	2052	2043	81756,8664550781	-0,0334903192046049	-0,0711669283097855
57729	2051	2037	81761,7492675781	-0,0376766091051805	-0,0962846677132392
57889	2054	2018	81766,6320800781	-0,0251177394034537	-0,175824175824176
58049	2059	2026	81771,5148925781	-0,00418628990057562	-0,142333856619571
58209	2057	2046	81776,3977050781	-0,0125588697017268	-0,0586080586080586
58369	2053	2039	81781,2805175781	-0,0293040293040293	-0,0879120879120879
58529	2062	2021	81786,1633300781	0,00837257980115123	-0,163265306122449
58689	2060	2027	81791,0461425781	0	-0,138147566718995
58849	2052	2048	81795,9289550781	-0,0334903192046049	-0,0502354788069074
59009	2057	2042	81800,8117675781	-0,0125588697017268	-0,0753532182103611
59169	2060	2023	81805,6945800781	0	-0,154892726321298
59329	2060	2025	81810,5773925781	0	-0,146520146520147
59489	2061	2051	81815,4602050781	0,00418628990057562	-0,0376766091051805
59649	2063	2052	81820,3430175781	0,0125588697017268	-0,0334903192046049
59809	2066	2031	81825,2258300781	0,0251177394034537	-0,121402407116693
59969	2054	2028	81830,1086425781	-0,0251177394034537	-0,13396127681842
60129	2054	2055	81834,9914550781	-0,0251177394034537	-0,0209314495028781
60289	2060	2062	81839,8742675781	0	0,00837257980115123
60449	2064	2038	81844,7570800781	0,0167451596023025	-0,0920983778126635
60609	2064	2035	81849,6398925781	0,0167451596023025	-0,10465724751439
60769	2061	2059	81854,5227050781	0,00418628990057562	-0,00418628990057562
60929	2064	2068	81859,4055175781	0,0167451596023025	0,0334903192046049
61089	2067	2048	81864,2883300781	0,0293040293040293	-0,0502354788069074
61249	2067	2041	81869,1711425781	0,0293040293040293	-0,0795395081109367
61409	2061	2065	81874,0539550781	0,00418628990057562	0,0209314495028781
61569	2064	2076	81878,9367675781	0,0167451596023025	0,0669806384092098
61729	2065	2060	81883,8195800781	0,0209314495028781	0
61889	2068	2048	81888,7023925781	0,0334903192046049	-0,0502354788069074
62049	2070	2070	81893,5852050781	0,0418628990057562	0,0418628990057562
62209	2067	2081	81898,4680175781	0,0293040293040293	0,0879120879120879
62369	2068	2063	81903,3508300781	0,0334903192046049	0,0125588697017268
62529	2058	2043	81908,2336425781	-0,00837257980115123	-0,0711669283097855
62689	2060	2062	81913,1164550781	0	0,00837257980115123
62849	2064	2075	81917,9992675781	0,0167451596023025	0,0627943485086342
63009	2069	2063	81922,8820800781	0,0376766091051805	0,0125588697017268
63169	2070	2045	81927,7648925781	0,0418628990057562	-0,0627943485086342
63329	2065	2056	81932,6477050781	0,0209314495028781	-0,0167451596023025
63489	2068	2075	81937,5305175781	0,0334903192046049	0,0627943485086342
63649	2059	2065	81942,4133300781	-0,00418628990057562	0,0209314495028781
63809	2068	2047	81947,2961425781	0,0334903192046049	-0,054421768707483
63969	2064	2057	81952,1789550781	0,0167451596023025	-0,0125588697017268
64129	2065	2073	81957,0617675781	0,0209314495028781	0,054421768707483
64289	2068	2062	81961,9445800781	0,0334903192046049	0,00837257980115123
64449	2066	2041	81966,8273925781	0,0251177394034537	-0,0795395081109367
64609	2065	2049	81971,7102050781	0,0209314495028781	-0,0460491889063318
64769	2064	2074	81976,5930175781	0,0167451596023025	0,0586080586080586
64929	2053	2063	81981,4758300781	-0,0293040293040293	0,0125588697017268
65089	2057	2039	81986,3586425781	-0,0125588697017268	-0,0879120879120879
65249	2057	2047	81991,2414550781	-0,0125588697017268	-0,054421768707483
65409	2065	2067	81996,1242675781	0,0209314495028781	0,0293040293040293
33	2064	2064	82001,0070800781	0,0167451596023025	0,0167451596023025
193	2064	2044	82005,8898925781	0,0167451596023025	-0,0669806384092098
353	2066	2045	82010,7727050781	0,0251177394034537	-0,0627943485086342
513	2058	2066	82015,6555175781	-0,00837257980115123	0,0251177394034537
673	2061	2063	82020,5383300781	0,00418628990057562	0,0125588697017268
833	2061	2046	82025,4211425781	0,00418628990057562	-0,0586080586080586
993	2054	2047	82030,3039550781	-0,0251177394034537	-0,054421768707483
1153	2060	2064	82035,1867675781	0	0,0167451596023025
1313	2061	2066	82040,0695800781	0,00418628990057562	0,0251177394034537
1473	2062	2045	82044,9523925781	0,00837257980115123	-0,0627943485086342
1633	2059	2043	82049,8352050781	-0,00418628990057562	-0,0711669283097855
1793	2061	2064	82054,7180175781	0,00418628990057562	0,0167451596023025
1953	2059	2068	82059,6008300781	-0,00418628990057562	0,0334903192046049
2113	2058	2048	82064,4836425781	-0,00837257980115123	-0,0502354788069074
2273	2063	2041	82069,3664550781	0,0125588697017268	-0,0795395081109367
2433	2064	2063	82074,2492675781	0,0167451596023025	0,0125588697017268
2593	2063	2070	82079,1320800781	0,0125588697017268	0,0418628990057562
2753	2064	2055	82084,0148925781	0,0167451596023025	-0,0209314495028781
2913	2067	2047	82088,8977050781	0,0293040293040293	-0,054421768707483
3073	2063	2062	82093,7805175781	0,0125588697017268	0,00837257980115123
3233	2057	2073	82098,6633300781	-0,0125588697017268	0,054421768707483
3393	2061	2057	82103,5461425781	0,00418628990057562	-0,0125588697017268
3553	2061	2043	82108,4289550781	0,00418628990057562	-0,0711669283097855
3713	2061	2058	82113,3117675781	0,00418628990057562	-0,00837257980115123
3873	2063	2072	82118,1945800781	0,0125588697017268	0,0502354788069074
4033	2069	2055	82123,0773925781	0,0376766091051805	-0,0209314495028781
4193	2064	2043	82127,9602050781	0,0167451596023025	-0,0711669283097855
4353	2060	2057	82132,8430175781	0	-0,0125588697017268
4513	2056	2069	82137,7258300781	-0,0167451596023025	0,0376766091051805
4673	2056	2055	82142,6086425781	-0,0167451596023025	-0,0209314495028781
4833	2061	2037	82147,4914550781	0,00418628990057562	-0,0962846677132392
4993	2056	2047	82152,3742675781	-0,0167451596023025	-0,054421768707483
5153	2059	2066	82157,2570800781	-0,00418628990057562	0,0251177394034537
5313	2062	2053	82162,1398925781	0,00837257980115123	-0,0293040293040293
5473	2064	2039	82167,0227050781	0,0167451596023025	-0,0879120879120879
5633	2059	2046	82171,9055175781	-0,00418628990057562	-0,0586080586080586
5793	2052	2063	82176,7883300781	-0,0334903192046049	0,0125588697017268
5953	2058	2056	82181,6711425781	-0,00837257980115123	-0,0167451596023025
6113	2062	2036	82186,5539550781	0,00837257980115123	-0,100470957613815
6273	2058	2040	82191,4367675781	-0,00837257980115123	-0,0837257980115123
6433	2058	2063	82196,3195800781	-0,00837257980115123	0,0125588697017268
6593	2061	2053	82201,2023925781	0,00418628990057562	-0,0293040293040293
6753	2060	2033	82206,0852050781	0	-0,113029827315542
6913	2054	2038	82210,9680175781	-0,0251177394034537	-0,0920983778126635
7073	2054	2058	82215,8508300781	-0,0251177394034537	-0,00837257980115123
7233	2057	2055	82220,7336425781	-0,0125588697017268	-0,0209314495028781
7393	2056	2035	82225,6164550781	-0,0167451596023025	-0,10465724751439
7553	2053	2033	82230,4992675781	-0,0293040293040293	-0,113029827315542
7713	2051	2056	82235,3820800781	-0,0376766091051805	-0,0167451596023025
7873	2055	2058	82240,2648925781	-0,0209314495028781	-0,00837257980115123
8033	2052	2035	82245,1477050781	-0,0334903192046049	-0,10465724751439
8193	2046	2025	82250,0305175781	-0,0586080586080586	-0,146520146520147
8353	2049	2054	82254,9133300781	-0,0460491889063318	-0,0251177394034537
8513	2052	2059	82259,7961425781	-0,0334903192046049	-0,00418628990057562
8673	2056	2040	82264,6789550781	-0,0167451596023025	-0,0837257980115123
8833	2056	2032	82269,5617675781	-0,0167451596023025	-0,117216117216117
8993	2055	2055	82274,4445800781	-0,0209314495028781	-0,0209314495028781
9153	2057	2063	82279,3273925781	-0,0125588697017268	0,0125588697017268
9313	2051	2040	82284,2102050781	-0,0376766091051805	-0,0837257980115123
9473	2055	2023	82289,0930175781	-0,0209314495028781	-0,154892726321298
9633	2054	2040	82293,9758300781	-0,0251177394034537	-0,0837257980115123
9793	2052	2048	82298,8586425781	-0,0334903192046049	-0,0502354788069074
9953	2056	2025	82303,7414550781	-0,0167451596023025	-0,146520146520147
10113	2055	2011	82308,6242675781	-0,0209314495028781	-0,205128205128205
10273	2054	2031	82313,5070800781	-0,0251177394034537	-0,121402407116693
10433	2054	2047	82318,3898925781	-0,0251177394034537	-0,054421768707483
10593	2052	2031	82323,2727050781	-0,0334903192046049	-0,121402407116693
10753	2052	2016	82328,1555175781	-0,0334903192046049	-0,184196755625327
10913	2058	2034	82333,0383300781	-0,00837257980115123	-0,108843537414966
11073	2060	2053	82337,9211425781	0	-0,0293040293040293
11233	2059	2037	82342,8039550781	-0,00418628990057562	-0,0962846677132392
11393	2056	2015	82347,6867675781	-0,0167451596023025	-0,188383045525903
11553	2054	2029	82352,5695800781	-0,0251177394034537	-0,129774986917844
11713	2050	2053	82357,4523925781	-0,0418628990057562	-0,0293040293040293
11873	2050	2040	82362,3352050781	-0,0418628990057562	-0,0837257980115123
12033	2053	2021	82367,2180175781	-0,0293040293040293	-0,163265306122449
12193	2050	2031	82372,1008300781	-0,0418628990057562	-0,121402407116693
12353	2056	2057	82376,9836425781	-0,0167451596023025	-0,0125588697017268
12513	2054	2045	82381,8664550781	-0,0251177394034537	-0,0627943485086342
12673	2053	2021	82386,7492675781	-0,0293040293040293	-0,163265306122449
12833	2058	2036	82391,6320800781	-0,00837257980115123	-0,100470957613815
12993	2042	2058	82396,5148925781	-0,0753532182103611	-0,00837257980115123
13153	2050	2052	82401,3977050781	-0,0418628990057562	-0,0334903192046049
13313	2055	2029	82406,2805175781	-0,0209314495028781	-0,129774986917844
13473	2053	2033	82411,1633300781	-0,0293040293040293	-0,113029827315542
13633	2053	2060	82416,0461425781	-0,0293040293040293	0
13793	2054	2054	82420,9289550781	-0,0251177394034537	-0,0251177394034537
13953	2058	2033	82425,8117675781	-0,00837257980115123	-0,113029827315542
14113	2057	2035	82430,6945800781	-0,0125588697017268	-0,10465724751439
14273	2052	2059	82435,5773925781	-0,0334903192046049	-0,00418628990057562
14433	2055	2062	82440,4602050781	-0,0209314495028781	0,00837257980115123
14593	2056	2036	82445,3430175781	-0,0167451596023025	-0,100470957613815
14753	2053	2031	82450,2258300781	-0,0293040293040293	-0,121402407116693
14913	2056	2058	82455,1086425781	-0,0167451596023025	-0,00837257980115123
15073	2058	2062	82459,9914550781	-0,00837257980115123	0,00837257980115123
15233	2058	2037	82464,8742675781	-0,00837257980115123	-0,0962846677132392
15393	2056	2031	82469,7570800781	-0,0167451596023025	-0,121402407116693
15553	2045	2056	82474,6398925781	-0,0627943485086342	-0,0167451596023025
15713	2053	2067	82479,5227050781	-0,0293040293040293	0,0293040293040293
15873	2056	2045	82484,4055175781	-0,0167451596023025	-0,0627943485086342
16033	2056	2035	82489,2883300781	-0,0167451596023025	-0,10465724751439
16193	2057	2064	82494,1711425781	-0,0125588697017268	0,0167451596023025
16353	2056	2079	82499,0539550781	-0,0167451596023025	0,0795395081109367
16513	2055	2055	82503,9367675781	-0,0209314495028781	-0,0209314495028781
16673	2058	2046	82508,8195800781	-0,00837257980115123	-0,0586080586080586
16833	2054	2067	82513,7023925781	-0,0251177394034537	0,0293040293040293
16993	2057	2082	82518,5852050781	-0,0125588697017268	0,0920983778126635
17153	2054	2063	82523,4680175781	-0,0251177394034537	0,0125588697017268
17313	2054	2047	82528,3508300781	-0,0251177394034537	-0,054421768707483
17473	2053	2067	82533,2336425781	-0,0293040293040293	0,0293040293040293
17633	2054	2082	82538,1164550781	-0,0251177394034537	0,0920983778126635
17793	2054	2070	82542,9992675781	-0,0251177394034537	0,0418628990057562
17953	2053	2055	82547,8820800781	-0,0293040293040293	-0,0209314495028781
18113	2051	2067	82552,7648925781	-0,0376766091051805	0,0293040293040293
18273	2051	2083	82557,6477050781	-0,0376766091051805	0,0962846677132392
18433	2054	2071	82562,5305175781	-0,0251177394034537	0,0460491889063318
18593	2058	2057	82567,4133300781	-0,00837257980115123	-0,0125588697017268
18753	2061	2069	82572,2961425781	0,00418628990057562	0,0376766091051805
18913	2060	2086	82577,1789550781	0	0,108843537414966
19073	2059	2079	82582,0617675781	-0,00418628990057562	0,0795395081109367
19233	2054	2063	82586,9445800781	-0,0251177394034537	0,0125588697017268
19393	2058	2070	82591,8273925781	-0,00837257980115123	0,0418628990057562
19553	2058	2090	82596,7102050781	-0,00837257980115123	0,125588697017268
19713	2064	2084	82601,5930175781	0,0167451596023025	0,100470957613815
19873	2064	2073	82606,4758300781	0,0167451596023025	0,054421768707483
20033	2064	2075	82611,3586425781	0,0167451596023025	0,0627943485086342
20193	2060	2092	82616,2414550781	0	0,13396127681842
20353	2063	2090	82621,1242675781	0,0125588697017268	0,125588697017268
20513	2062	2077	82626,0070800781	0,00837257980115123	0,0711669283097855
20673	2063	2078	82630,8898925781	0,0125588697017268	0,0753532182103611
20833	2066	2096	82635,7727050781	0,0251177394034537	0,150706436420722
20993	2067	2095	82640,6555175781	0,0293040293040293	0,146520146520147
21153	2064	2083	82645,5383300781	0,0167451596023025	0,0962846677132392
21313	2068	2084	82650,4211425781	0,0334903192046049	0,100470957613815
21473	2064	2096	82655,3039550781	0,0167451596023025	0,150706436420722
21633	2059	2095	82660,1867675781	-0,00418628990057562	0,146520146520147
21793	2062	2086	82665,0695800781	0,00837257980115123	0,108843537414966
21953	2067	2083	82669,9523925781	0,0293040293040293	0,0962846677132392
22113	2064	2091	82674,8352050781	0,0167451596023025	0,129774986917844
22273	2064	2092	82679,7180175781	0,0167451596023025	0,13396127681842
22433	2065	2082	82684,6008300781	0,0209314495028781	0,0920983778126635
22593	2066	2079	82689,4836425781	0,0251177394034537	0,0795395081109367
22753	2058	2087	82694,3664550781	-0,00837257980115123	0,113029827315542
22913	2052	2086	82699,2492675781	-0,0334903192046049	0,108843537414966
23073	2055	2075	82704,1320800781	-0,0209314495028781	0,0627943485086342
23233	2064	2071	82709,0148925781	0,0167451596023025	0,0460491889063318
23393	2057	2076	82713,8977050781	-0,0125588697017268	0,0669806384092098
23553	2055	2079	82718,7805175781	-0,0209314495028781	0,0795395081109367
23713	2060	2072	82723,6633300781	0	0,0502354788069074
23873	2063	2069	82728,5461425781	0,0125588697017268	0,0376766091051805
24033	2054	2077	82733,4289550781	-0,0251177394034537	0,0711669283097855
24193	2052	2074	82738,3117675781	-0,0334903192046049	0,0586080586080586
24353	2060	2070	82743,1945800781	0	0,0418628990057562
24513	2064	2064	82748,0773925781	0,0167451596023025	0,0167451596023025
24673	2062	2070	82752,9602050781	0,00837257980115123	0,0418628990057562
24833	2060	2073	82757,8430175781	0	0,054421768707483
24993	2059	2070	82762,7258300781	-0,00418628990057562	0,0418628990057562
25153	2057	2063	82767,6086425781	-0,0125588697017268	0,0125588697017268
25313	2049	2066	82772,4914550781	-0,0460491889063318	0,0251177394034537
25473	2053	2072	82777,3742675781	-0,0293040293040293	0,0502354788069074
25633	2057	2067	82782,2570800781	-0,0125588697017268	0,0293040293040293
25793	2062	2066	82787,1398925781	0,00837257980115123	0,0251177394034537
25953	2060	2066	82792,0227050781	0	0,0251177394034537
26113	2053	2070	82796,9055175781	-0,0293040293040293	0,0418628990057562
26273	2058	2067	82801,7883300781	-0,00837257980115123	0,0293040293040293
26433	2059	2064	82806,6711425781	-0,00418628990057562	0,0167451596023025
26593	2058	2066	82811,5539550781	-0,00837257980115123	0,0251177394034537
26753	2058	2071	82816,4367675781	-0,00837257980115123	0,0460491889063318
26913	2060	2071	82821,3195800781	0	0,0460491889063318
27073	2061	2062	82826,2023925781	0,00418628990057562	0,00837257980115123
27233	2060	2065	82831,0852050781	0	0,0209314495028781
27393	2058	2071	82835,9680175781	-0,00837257980115123	0,0460491889063318
27553	2060	2071	82840,8508300781	0	0,0460491889063318
27713	2059	2063	82845,7336425781	-0,00418628990057562	0,0125588697017268
27873	2059	2061	82850,6164550781	-0,00418628990057562	0,00418628990057562
28033	2057	2067	82855,4992675781	-0,0125588697017268	0,0293040293040293
28193	2055	2071	82860,3820800781	-0,0209314495028781	0,0460491889063318
28353	2059	2063	82865,2648925781	-0,00418628990057562	0,0125588697017268
28513	2056	2059	82870,1477050781	-0,0167451596023025	-0,00418628990057562
28673	2054	2067	82875,0305175781	-0,0251177394034537	0,0293040293040293
28833	2048	2069	82879,9133300781	-0,0502354788069074	0,0376766091051805
28993	2058	2065	82884,7961425781	-0,00837257980115123	0,0209314495028781
29153	2061	2065	82889,6789550781	0,00418628990057562	0,0209314495028781
29313	2055	2068	82894,5617675781	-0,0209314495028781	0,0334903192046049
29473	2052	2069	82899,4445800781	-0,0334903192046049	0,0376766091051805
29633	2058	2065	82904,3273925781	-0,00837257980115123	0,0209314495028781
29793	2063	2064	82909,2102050781	0,0125588697017268	0,0167451596023025
29953	2058	2067	82914,0930175781	-0,00837257980115123	0,0293040293040293
30113	2053	2065	82918,9758300781	-0,0293040293040293	0,0209314495028781
30273	2057	2059	82923,8586425781	-0,0125588697017268	-0,00418628990057562
30433	2055	2055	82928,7414550781	-0,0209314495028781	-0,0209314495028781
30593	2050	2059	82933,6242675781	-0,0418628990057562	-0,00418628990057562
30753	2050	2059	82938,5070800781	-0,0418628990057562	-0,00418628990057562
30913	2048	2058	82943,3898925781	-0,0502354788069074	-0,00837257980115123
31073	2054	2048	82948,2727050781	-0,0251177394034537	-0,0502354788069074
31233	2057	2054	82953,1555175781	-0,0125588697017268	-0,0251177394034537
31393	2053	2056	82958,0383300781	-0,0293040293040293	-0,0167451596023025
31553	2056	2057	82962,9211425781	-0,0167451596023025	-0,0125588697017268
31713	2059	2049	82967,8039550781	-0,00418628990057562	-0,0460491889063318
31873	2056	2052	82972,6867675781	-0,0167451596023025	-0,0334903192046049
32033	2046	2052	82977,5695800781	-0,0586080586080586	-0,0334903192046049
32193	2048	2048	82982,4523925781	-0,0502354788069074	-0,0502354788069074
32353	2055	2044	82987,3352050781	-0,0209314495028781	-0,0669806384092098
32513	2044	2047	82992,2180175781	-0,0669806384092098	-0,054421768707483
32673	2044	2051	82997,1008300781	-0,0669806384092098	-0,0376766091051805
32833	2050	2046	83001,9836425781	-0,0418628990057562	-0,0586080586080586
32993	2051	2040	83006,8664550781	-0,0376766091051805	-0,0837257980115123
33153	2054	2043	83011,7492675781	-0,0251177394034537	-0,0711669283097855
33313	2043	2043	83016,6320800781	-0,0711669283097855	-0,0711669283097855
33473	2041	2043	83021,5148925781	-0,0795395081109367	-0,0711669283097855
33633	2048	2035	83026,3977050781	-0,0502354788069074	-0,10465724751439
33793	2049	2035	83031,2805175781	-0,0460491889063318	-0,10465724751439
33953	2042	2041	83036,1633300781	-0,0753532182103611	-0,0795395081109367
34113	2044	2039	83041,0461425781	-0,0669806384092098	-0,0879120879120879
34273	2041	2030	83045,9289550781	-0,0795395081109367	-0,125588697017268
34433	2044	2030	83050,8117675781	-0,0669806384092098	-0,125588697017268
34593	2038	2037	83055,6945800781	-0,0920983778126635	-0,0962846677132392
34753	2038	2036	83060,5773925781	-0,0920983778126635	-0,100470957613815
34913	2047	2028	83065,4602050781	-0,054421768707483	-0,13396127681842
35073	2047	2027	83070,3430175781	-0,054421768707483	-0,138147566718995
35233	2044	2029	83075,2258300781	-0,0669806384092098	-0,129774986917844
35393	2042	2037	83080,1086425781	-0,0753532182103611	-0,0962846677132392
35553	2046	2026	83084,9914550781	-0,0586080586080586	-0,142333856619571
35713	2039	2026	83089,8742675781	-0,0879120879120879	-0,142333856619571
35873	2046	2039	83094,7570800781	-0,0586080586080586	-0,0879120879120879
36033	2041	2044	83099,6398925781	-0,0795395081109367	-0,0669806384092098
36193	2051	2036	83104,5227050781	-0,0376766091051805	-0,100470957613815
36353	2048	2034	83109,4055175781	-0,0502354788069074	-0,108843537414966
36513	2048	2042	83114,2883300781	-0,0502354788069074	-0,0753532182103611
36673	2047	2047	83119,1711425781	-0,054421768707483	-0,054421768707483
36833	2054	2039	83124,0539550781	-0,0251177394034537	-0,0879120879120879
36993	2045	2034	83128,9367675781	-0,0627943485086342	-0,108843537414966
37153	2048	2046	83133,8195800781	-0,0502354788069074	-0,0586080586080586
37313	2047	2046	83138,7023925781	-0,054421768707483	-0,0586080586080586
37473	2049	2045	83143,5852050781	-0,0460491889063318	-0,0627943485086342
37633	2050	2034	83148,4680175781	-0,0418628990057562	-0,108843537414966
37793	2049	2047	83153,3508300781	-0,0460491889063318	-0,054421768707483
37953	2048	2050	83158,2336425781	-0,0502354788069074	-0,0418628990057562
38113	2053	2045	83163,1164550781	-0,0293040293040293	-0,0627943485086342
38273	2044	2038	83167,9992675781	-0,0669806384092098	-0,0920983778126635
38433	2051	2047	83172,8820800781	-0,0376766091051805	-0,054421768707483
38593	2054	2056	83177,7648925781	-0,0251177394034537	-0,0167451596023025
38753	2055	2050	83182,6477050781	-0,0209314495028781	-0,0418628990057562
38913	2056	2040	83187,5305175781	-0,0167451596023025	-0,0837257980115123
39073	2052	2049	83192,4133300781	-0,0334903192046049	-0,0460491889063318
39233	2058	2060	83197,2961425781	-0,00837257980115123	0
39393	2054	2054	83202,1789550781	-0,0251177394034537	-0,0251177394034537
39553	2056	2042	83207,0617675781	-0,0167451596023025	-0,0753532182103611
39713	2056	2047	83211,9445800781	-0,0167451596023025	-0,054421768707483
39873	2058	2061	83216,8273925781	-0,00837257980115123	0,00418628990057562
40033	2060	2057	83221,7102050781	0	-0,0125588697017268
40193	2063	2051	83226,5930175781	0,0125588697017268	-0,0376766091051805
40353	2058	2052	83231,4758300781	-0,00837257980115123	-0,0334903192046049
40513	2052	2061	83236,3586425781	-0,0334903192046049	0,00418628990057562
40673	2049	2064	83241,2414550781	-0,0460491889063318	0,0167451596023025
40833	2060	2057	83246,1242675781	0	-0,0125588697017268
40993	2063	2060	83251,0070800781	0,0125588697017268	0
41153	2063	2070	83255,8898925781	0,0125588697017268	0,0418628990057562
41313	2065	2072	83260,7727050781	0,0209314495028781	0,0502354788069074
41473	2066	2062	83265,6555175781	0,0251177394034537	0,00837257980115123
41633	2060	2063	83270,5383300781	0	0,0125588697017268
41793	2056	2068	83275,4211425781	-0,0167451596023025	0,0334903192046049
41953	2051	2069	83280,3039550781	-0,0376766091051805	0,0376766091051805
42113	2056	2061	83285,1867675781	-0,0167451596023025	0,00418628990057562
42273	2058	2060	83290,0695800781	-0,00837257980115123	0
42433	2058	2067	83294,9523925781	-0,00837257980115123	0,0293040293040293
42593	2056	2067	83299,8352050781	-0,0167451596023025	0,0293040293040293
42753	2055	2059	83304,7180175781	-0,0209314495028781	-0,00418628990057562
42913	2057	2055	83309,6008300781	-0,0125588697017268	-0,0209314495028781
43073	2053	2061	83314,4836425781	-0,0293040293040293	0,00418628990057562
43233	2051	2062	83319,3664550781	-0,0376766091051805	0,00837257980115123
43393	2058	2057	83324,2492675781	-0,00837257980115123	-0,0125588697017268
43553	2060	2051	83329,1320800781	0	-0,0376766091051805
43713	2063	2055	83334,0148925781	0,0125588697017268	-0,0209314495028781
43873	2056	2058	83338,8977050781	-0,0167451596023025	-0,00837257980115123
44033	2057	2055	83343,7805175781	-0,0125588697017268	-0,0209314495028781
44193	2057	2052	83348,6633300781	-0,0125588697017268	-0,0334903192046049
44353	2063	2059	83353,5461425781	0,0125588697017268	-0,00418628990057562
44513	2060	2062	83358,4289550781	0	0,00837257980115123
44673	2062	2055	83363,3117675781	0,00837257980115123	-0,0209314495028781
44833	2064	2052	83368,1945800781	0,0167451596023025	-0,0334903192046049
44993	2063	2056	83373,0773925781	0,0125588697017268	-0,0167451596023025
45153	2062	2062	83377,9602050781	0,00837257980115123	0,00837257980115123
45313	2061	2061	83382,8430175781	0,00418628990057562	0,00418628990057562
45473	2052	2053	83387,7258300781	-0,0334903192046049	-0,0293040293040293
45633	2056	2055	83392,6086425781	-0,0167451596023025	-0,0209314495028781
45793	2056	2061	83397,4914550781	-0,0167451596023025	0,00418628990057562
45953	2058	2060	83402,3742675781	-0,00837257980115123	0
46113	2061	2058	83407,2570800781	0,00418628990057562	-0,00837257980115123
46273	2063	2061	83412,1398925781	0,0125588697017268	0,00418628990057562
46433	2059	2068	83417,0227050781	-0,00418628990057562	0,0334903192046049
46593	2062	2071	83421,9055175781	0,00837257980115123	0,0460491889063318
46753	2062	2066	83426,7883300781	0,00837257980115123	0,0251177394034537
46913	2066	2070	83431,6711425781	0,0251177394034537	0,0418628990057562
47073	2064	2074	83436,5539550781	0,0167451596023025	0,0586080586080586
47233	2061	2072	83441,4367675781	0,00418628990057562	0,0502354788069074
47393	2068	2073	83446,3195800781	0,0334903192046049	0,054421768707483
47553	2068	2071	83451,2023925781	0,0334903192046049	0,0460491889063318
47713	2064	2081	83456,0852050781	0,0167451596023025	0,0879120879120879
47873	2064	2077	83460,9680175781	0,0167451596023025	0,0711669283097855
48033	2065	2074	83465,8508300781	0,0209314495028781	0,0586080586080586
48193	2071	2078	83470,7336425781	0,0460491889063318	0,0753532182103611
48353	2067	2076	83475,6164550781	0,0293040293040293	0,0669806384092098
48513	2065	2074	83480,4992675781	0,0209314495028781	0,0586080586080586
48673	2069	2073	83485,3820800781	0,0376766091051805	0,054421768707483
48833	2069	2067	83490,2648925781	0,0376766091051805	0,0293040293040293
48993	2051	2065	83495,1477050781	-0,0376766091051805	0,0209314495028781
49153	2056	2065	83500,0305175781	-0,0167451596023025	0,0209314495028781
49313	2064	2064	83504,9133300781	0,0167451596023025	0,0167451596023025
49473	2067	2064	83509,7961425781	0,0293040293040293	0,0167451596023025
49633	2064	2067	83514,6789550781	0,0167451596023025	0,0293040293040293
49793	2062	2068	83519,5617675781	0,00837257980115123	0,0334903192046049
49953	2068	2073	83524,4445800781	0,0334903192046049	0,054421768707483
50113	2066	2073	83529,3273925781	0,0251177394034537	0,054421768707483
50273	2060	2076	83534,2102050781	0	0,0669806384092098
50433	2059	2078	83539,0930175781	-0,00418628990057562	0,0753532182103611
50593	2066	2076	83543,9758300781	0,0251177394034537	0,0669806384092098
50753	2071	2079	83548,8586425781	0,0460491889063318	0,0795395081109367
50913	2067	2076	83553,7414550781	0,0293040293040293	0,0669806384092098
51073	2060	2074	83558,6242675781	0	0,0586080586080586
51233	2064	2077	83563,5070800781	0,0167451596023025	0,0711669283097855
51393	2068	2082	83568,3898925781	0,0334903192046049	0,0920983778126635
51553	2065	2075	83573,2727050781	0,0209314495028781	0,0627943485086342
51713	2059	2071	83578,1555175781	-0,00418628990057562	0,0460491889063318
51873	2067	2073	83583,0383300781	0,0293040293040293	0,054421768707483
52033	2072	2075	83587,9211425781	0,0502354788069074	0,0627943485086342
52193	2064	2064	83592,8039550781	0,0167451596023025	0,0167451596023025
52353	2054	2052	83597,6867675781	-0,0251177394034537	-0,0334903192046049
52513	2055	2045	83602,5695800781	-0,0209314495028781	-0,0627943485086342
52673	2042	2032	83607,4523925781	-0,0753532182103611	-0,117216117216117
52833	2038	2021	83612,3352050781	-0,0920983778126635	-0,163265306122449
52993	2029	2008	83617,2180175781	-0,129774986917844	-0,217687074829932
53153	2019	1985	83622,1008300781	-0,1716378859236	-0,313971742543171
53313	2006	1953	83626,9836425781	-0,226059654631083	-0,447933019361591
53473	1994	1927	83631,8664550781	-0,276295133437991	-0,556776556776557
53633	1984	1910	83636,7492675781	-0,318158032443747	-0,627943485086342
53793	1961	1856	83641,6320800781	-0,414442700156986	-0,854003139717425
53953	1927	1787	83646,5148925781	-0,556776556776557	-1,14285714285714
54113	1908	1777	83651,3977050781	-0,636316064887493	-1,1847200418629
54273	1922	1819	83656,2805175781	-0,577708006279435	-1,00889586603872
54433	1931	1836	83661,1633300781	-0,540031397174254	-0,937728937728938
54593	1918	1826	83666,0461425781	-0,594453165881737	-0,979591836734694
54753	1926	1841	83670,9289550781	-0,560962846677132	-0,91679748822606
54913	1950	1888	83675,8117675781	-0,460491889063318	-0,720041862899006
55073	1949	1904	83680,6945800781	-0,464678178963893	-0,653061224489796
55233	1934	1880	83685,5773925781	-0,527472527472527	-0,753532182103611
55393	1943	1891	83690,4602050781	-0,489795918367347	-0,707482993197279
55553	1964	1941	83695,3430175781	-0,401883830455259	-0,498168498168498
55713	1976	1953	83700,2258300781	-0,351648351648352	-0,447933019361591
55873	1966	1934	83705,1086425781	-0,393511250654108	-0,527472527472527
56033	1969	1937	83709,9914550781	-0,380952380952381	-0,514913657770801
56193	1994	1979	83714,8742675781	-0,276295133437991	-0,339089481946625
56353	2009	1999	83719,7570800781	-0,213500784929356	-0,255363683935113
56513	1996	1977	83724,6398925781	-0,267922553636839	-0,347462061747776
56673	1993	1969	83729,5227050781	-0,280481423338566	-0,380952380952381
56833	2023	2007	83734,4055175781	-0,154892726321298	-0,221873364730508
56993	2038	2025	83739,2883300781	-0,0920983778126635	-0,146520146520147
57153	2026	2007	83744,1711425781	-0,142333856619571	-0,221873364730508
57313	2017	1988	83749,0539550781	-0,180010465724751	-0,301412872841444
57473	2033	2019	83753,9367675781	-0,113029827315542	-0,1716378859236
57633	2045	2040	83758,8195800781	-0,0627943485086342	-0,0837257980115123
57793	2027	2012	83763,7023925781	-0,138147566718995	-0,20094191522763
57953	2011	1982	83768,5852050781	-0,205128205128205	-0,326530612244898
58113	2024	2002	83773,4680175781	-0,150706436420722	-0,242804814233386
58273	2036	2023	83778,3508300781	-0,100470957613815	-0,154892726321298
58433	2025	2004	83783,2336425781	-0,146520146520147	-0,234432234432234
58593	2015	1983	83788,1164550781	-0,188383045525903	-0,322344322344322
58753	2031	2007	83792,9992675781	-0,121402407116693	-0,221873364730508
58913	2049	2036	83797,8820800781	-0,0460491889063318	-0,100470957613815
59073	2035	2027	83802,7648925781	-0,10465724751439	-0,138147566718995
59233	2027	2005	83807,6477050781	-0,138147566718995	-0,230245944531659
59393	2043	2028	83812,5305175781	-0,0711669283097855	-0,13396127681842
59553	2061	2056	83817,4133300781	0,00418628990057562	-0,0167451596023025
59713	2060	2055	83822,2961425781	0	-0,0209314495028781
59873	2041	2031	83827,1789550781	-0,0795395081109367	-0,121402407116693
60033	2052	2051	83832,0617675781	-0,0334903192046049	-0,0376766091051805
60193	2066	2076	83836,9445800781	0,0251177394034537	0,0669806384092098
60353	2066	2074	83841,8273925781	0,0251177394034537	0,0586080586080586
60513	2058	2062	83846,7102050781	-0,00837257980115123	0,00837257980115123
60673	2064	2071	83851,5930175781	0,0167451596023025	0,0460491889063318
60833	2081	2089	83856,4758300781	0,0879120879120879	0,121402407116693
60993	2079	2090	83861,3586425781	0,0795395081109367	0,125588697017268
61153	2062	2079	83866,2414550781	0,00837257980115123	0,0795395081109367
61313	2072	2081	83871,1242675781	0,0502354788069074	0,0879120879120879
61473	2086	2090	83876,0070800781	0,108843537414966	0,125588697017268
61633	2088	2087	83880,8898925781	0,117216117216117	0,113029827315542
61793	2078	2070	83885,7727050781	0,0753532182103611	0,0418628990057562
61953	2084	2065	83890,6555175781	0,100470957613815	0,0209314495028781
62113	2099	2076	83895,5383300781	0,163265306122449	0,0669806384092098
62273	2099	2078	83900,4211425781	0,163265306122449	0,0753532182103611
62433	2089	2064	83905,3039550781	0,121402407116693	0,0167451596023025
62593	2088	2063	83910,1867675781	0,117216117216117	0,0125588697017268
62753	2084	2070	83915,0695800781	0,100470957613815	0,0418628990057562
62913	2092	2073	83919,9523925781	0,13396127681842	0,054421768707483
63073	2084	2063	83924,8352050781	0,100470957613815	0,0125588697017268
63233	2081	2058	83929,7180175781	0,0879120879120879	-0,00837257980115123
63393	2084	2063	83934,6008300781	0,100470957613815	0,0125588697017268
63553	2081	2064	83939,4836425781	0,0879120879120879	0,0167451596023025
63713	2070	2055	83944,3664550781	0,0418628990057562	-0,0209314495028781
63873	2064	2057	83949,2492675781	0,0167451596023025	-0,0125588697017268
64033	2054	2055	83954,1320800781	-0,0251177394034537	-0,0209314495028781
64193	2049	2044	83959,0148925781	-0,0460491889063318	-0,0669806384092098
64353	2039	2036	83963,8977050781	-0,0879120879120879	-0,100470957613815
64513	2034	2035	83968,7805175781	-0,108843537414966	-0,10465724751439
64673	2032	2033	83973,6633300781	-0,117216117216117	-0,113029827315542
64833	2030	2028	83978,5461425781	-0,125588697017268	-0,13396127681842
64993	2024	2024	83983,4289550781	-0,150706436420722	-0,150706436420722
65153	2015	2024	83988,3117675781	-0,188383045525903	-0,150706436420722
65313	2010	2020	83993,1945800781	-0,209314495028781	-0,167451596023025
65473	2008	2020	83998,0773925781	-0,217687074829932	-0,167451596023025
97	2002	2020	84002,9602050781	-0,242804814233386	-0,167451596023025
257	2003	2021	84007,8430175781	-0,23861852433281	-0,163265306122449
417	1997	2016	84012,7258300781	-0,263736263736264	-0,184196755625327
577	2011	2018	84017,6086425781	-0,205128205128205	-0,175824175824176
737	2016	2028	84022,4914550781	-0,184196755625327	-0,13396127681842
897	2016	2040	84027,3742675781	-0,184196755625327	-0,0837257980115123
1057	2021	2043	84032,2570800781	-0,163265306122449	-0,0711669283097855
1217	2028	2049	84037,1398925781	-0,13396127681842	-0,0460491889063318
1377	2037	2063	84042,0227050781	-0,0962846677132392	0,0125588697017268
1537	2038	2078	84046,9055175781	-0,0920983778126635	0,0753532182103611
1697	2051	2081	84051,7883300781	-0,0376766091051805	0,0879120879120879
1857	2049	2081	84056,6711425781	-0,0460491889063318	0,0879120879120879
2017	2058	2090	84061,5539550781	-0,00837257980115123	0,125588697017268
2177	2067	2104	84066,4367675781	0,0293040293040293	0,184196755625327
2337	2073	2105	84071,3195800781	0,054421768707483	0,188383045525903
2497	2078	2099	84076,2023925781	0,0753532182103611	0,163265306122449
2657	2082	2105	84081,0852050781	0,0920983778126635	0,188383045525903
2817	2085	2114	84085,9680175781	0,10465724751439	0,226059654631083
2977	2088	2116	84090,8508300781	0,117216117216117	0,234432234432234
3137	2091	2110	84095,7336425781	0,129774986917844	0,209314495028781
3297	2094	2110	84100,6164550781	0,142333856619571	0,209314495028781
3457	2094	2125	84105,4992675781	0,142333856619571	0,272108843537415
3617	2091	2124	84110,3820800781	0,129774986917844	0,267922553636839
3777	2096	2115	84115,2648925781	0,150706436420722	0,230245944531659
3937	2097	2112	84120,1477050781	0,154892726321298	0,217687074829932
4097	2096	2120	84125,0305175781	0,150706436420722	0,251177394034537
4257	2097	2122	84129,9133300781	0,154892726321298	0,259549973835688
4417	2101	2113	84134,7961425781	0,1716378859236	0,221873364730508
4577	2102	2111	84139,6789550781	0,175824175824176	0,213500784929356
4737	2098	2118	84144,5617675781	0,159079016221873	0,242804814233386
4897	2090	2115	84149,4445800781	0,125588697017268	0,230245944531659
5057	2093	2105	84154,3273925781	0,138147566718995	0,188383045525903
5217	2093	2100	84159,2102050781	0,138147566718995	0,167451596023025
5377	2093	2105	84164,0930175781	0,138147566718995	0,188383045525903
5537	2086	2108	84168,9758300781	0,108843537414966	0,20094191522763
5697	2091	2101	84173,8586425781	0,129774986917844	0,1716378859236
5857	2088	2093	84178,7414550781	0,117216117216117	0,138147566718995
6017	2091	2098	84183,6242675781	0,129774986917844	0,159079016221873
6177	2088	2100	84188,5070800781	0,117216117216117	0,167451596023025
6337	2090	2091	84193,3898925781	0,125588697017268	0,129774986917844
6497	2088	2085	84198,2727050781	0,117216117216117	0,10465724751439
6657	2084	2091	84203,1555175781	0,100470957613815	0,129774986917844
6817	2080	2094	84208,0383300781	0,0837257980115123	0,142333856619571
6977	2080	2085	84212,9211425781	0,0837257980115123	0,10465724751439
7137	2081	2077	84217,8039550781	0,0879120879120879	0,0711669283097855
7297	2073	2083	84222,6867675781	0,054421768707483	0,0962846677132392
7457	2074	2089	84227,5695800781	0,0586080586080586	0,121402407116693
7617	2079	2083	84232,4523925781	0,0795395081109367	0,0962846677132392
7777	2082	2076	84237,3352050781	0,0920983778126635	0,0669806384092098
7937	2079	2078	84242,2180175781	0,0795395081109367	0,0753532182103611
8097	2075	2080	84247,1008300781	0,0627943485086342	0,0837257980115123
8257	2075	2079	84251,9836425781	0,0627943485086342	0,0795395081109367
8417	2078	2068	84256,8664550781	0,0753532182103611	0,0334903192046049
8577	2081	2072	84261,7492675781	0,0879120879120879	0,0502354788069074
8737	2068	2059	84266,6320800781	0,0334903192046049	-0,00418628990057562
8897	2058	2063	84271,5148925781	-0,00837257980115123	0,0125588697017268
9057	2063	2057	84276,3977050781	0,0125588697017268	-0,0125588697017268
9217	2072	2061	84281,2805175781	0,0502354788069074	0,00418628990057562
9377	2068	2066	84286,1633300781	0,0334903192046049	0,0251177394034537
9537	2067	2064	84291,0461425781	0,0293040293040293	0,0167451596023025
9697	2069	2053	84295,9289550781	0,0376766091051805	-0,0293040293040293
9857	2068	2059	84300,8117675781	0,0334903192046049	-0,00418628990057562
10017	2058	2060	84305,6945800781	-0,00837257980115123	0
10177	2063	2058	84310,5773925781	0,0125588697017268	-0,00837257980115123
10337	2067	2053	84315,4602050781	0,0293040293040293	-0,0293040293040293
10497	2067	2054	84320,3430175781	0,0293040293040293	-0,0251177394034537
10657	2064	2055	84325,2258300781	0,0167451596023025	-0,0209314495028781
10817	2063	2055	84330,1086425781	0,0125588697017268	-0,0209314495028781
10977	2062	2051	84334,9914550781	0,00837257980115123	-0,0376766091051805
11137	2065	2049	84339,8742675781	0,0209314495028781	-0,0460491889063318
11297	2054	2049	84344,7570800781	-0,0251177394034537	-0,0460491889063318
11457	2051	2048	84349,6398925781	-0,0376766091051805	-0,0502354788069074
11617	2056	2048	84354,5227050781	-0,0167451596023025	-0,0502354788069074
11777	2060	2044	84359,4055175781	0	-0,0669806384092098
11937	2060	2047	84364,2883300781	0	-0,054421768707483
12097	2047	2039	84369,1711425781	-0,054421768707483	-0,0879120879120879
12257	2048	2032	84374,0539550781	-0,0502354788069074	-0,117216117216117
12417	2040	2026	84378,9367675781	-0,0837257980115123	-0,142333856619571
12577	2036	2026	84383,8195800781	-0,100470957613815	-0,142333856619571
12737	2033	2024	84388,7023925781	-0,113029827315542	-0,150706436420722
12897	2031	2021	84393,5852050781	-0,121402407116693	-0,163265306122449
13057	2042	2026	84398,4680175781	-0,0753532182103611	-0,142333856619571
13217	2036	2024	84403,3508300781	-0,100470957613815	-0,150706436420722
13377	2034	2021	84408,2336425781	-0,108843537414966	-0,163265306122449
13537	2032	2024	84413,1164550781	-0,117216117216117	-0,150706436420722
13697	2037	2019	84417,9992675781	-0,0962846677132392	-0,1716378859236
13857	2039	2020	84422,8820800781	-0,0879120879120879	-0,167451596023025
14017	2031	2018	84427,7648925781	-0,121402407116693	-0,175824175824176
14177	2035	2017	84432,6477050781	-0,10465724751439	-0,180010465724751
14337	2039	2015	84437,5305175781	-0,0879120879120879	-0,188383045525903
14497	2034	2021	84442,4133300781	-0,108843537414966	-0,163265306122449
14657	2034	2020	84447,2961425781	-0,108843537414966	-0,167451596023025
14817	2035	2023	84452,1789550781	-0,10465724751439	-0,154892726321298
14977	2038	2027	84457,0617675781	-0,0920983778126635	-0,138147566718995
15137	2043	2030	84461,9445800781	-0,0711669283097855	-0,125588697017268
15297	2041	2028	84466,8273925781	-0,0795395081109367	-0,13396127681842
15457	2046	2032	84471,7102050781	-0,0586080586080586	-0,117216117216117
15617	2055	2037	84476,5930175781	-0,0209314495028781	-0,0962846677132392
15777	2054	2040	84481,4758300781	-0,0251177394034537	-0,0837257980115123
15937	2048	2039	84486,3586425781	-0,0502354788069074	-0,0879120879120879
16097	2049	2041	84491,2414550781	-0,0460491889063318	-0,0795395081109367
16257	2054	2045	84496,1242675781	-0,0251177394034537	-0,0627943485086342
16417	2052	2042	84501,0070800781	-0,0334903192046049	-0,0753532182103611
16577	2048	2038	84505,8898925781	-0,0502354788069074	-0,0920983778126635
16737	2042	2035	84510,7727050781	-0,0753532182103611	-0,10465724751439
16897	2064	2039	84515,6555175781	0,0167451596023025	-0,0879120879120879
17057	2054	2042	84520,5383300781	-0,0251177394034537	-0,0753532182103611
17217	2049	2036	84525,4211425781	-0,0460491889063318	-0,100470957613815
17377	2046	2036	84530,3039550781	-0,0586080586080586	-0,100470957613815
17537	2051	2042	84535,1867675781	-0,0376766091051805	-0,0753532182103611
17697	2048	2046	84540,0695800781	-0,0502354788069074	-0,0586080586080586
17857	2043	2044	84544,9523925781	-0,0711669283097855	-0,0669806384092098
18017	2045	2038	84549,8352050781	-0,0627943485086342	-0,0920983778126635
18177	2053	2050	84554,7180175781	-0,0293040293040293	-0,0418628990057562
18337	2057	2054	84559,6008300781	-0,0125588697017268	-0,0251177394034537
18497	2055	2052	84564,4836425781	-0,0209314495028781	-0,0334903192046049
18657	2051	2049	84569,3664550781	-0,0376766091051805	-0,0460491889063318
18817	2059	2059	84574,2492675781	-0,00418628990057562	-0,00418628990057562
18977	2062	2064	84579,1320800781	0,00837257980115123	0,0167451596023025
19137	2055	2060	84584,0148925781	-0,0209314495028781	0
19297	2038	2047	84588,8977050781	-0,0920983778126635	-0,054421768707483
19457	2052	2058	84593,7805175781	-0,0334903192046049	-0,00837257980115123
19617	2059	2071	84598,6633300781	-0,00418628990057562	0,0460491889063318
19777	2061	2069	84603,5461425781	0,00418628990057562	0,0376766091051805
19937	2053	2071	84608,4289550781	-0,0293040293040293	0,0460491889063318
20097	2059	2068	84613,3117675781	-0,00418628990057562	0,0334903192046049
20257	2060	2070	84618,1945800781	0	0,0418628990057562
20417	2052	2061	84623,0773925781	-0,0334903192046049	0,00418628990057562
20577	2040	2055	84627,9602050781	-0,0837257980115123	-0,0209314495028781
20737	2045	2057	84632,8430175781	-0,0627943485086342	-0,0125588697017268
20897	2048	2060	84637,7258300781	-0,0502354788069074	0
21057	2045	2061	84642,6086425781	-0,0627943485086342	0,00418628990057562
21217	2044	2055	84647,4914550781	-0,0669806384092098	-0,0209314495028781
21377	2048	2066	84652,3742675781	-0,0502354788069074	0,0251177394034537
21537	2058	2071	84657,2570800781	-0,00837257980115123	0,0460491889063318
21697	2053	2070	84662,1398925781	-0,0293040293040293	0,0418628990057562
21857	2051	2064	84667,0227050781	-0,0376766091051805	0,0167451596023025
22017	2047	2064	84671,9055175781	-0,054421768707483	0,0167451596023025
22177	2059	2075	84676,7883300781	-0,00418628990057562	0,0627943485086342
22337	2053	2074	84681,6711425781	-0,0293040293040293	0,0586080586080586
22497	2054	2070	84686,5539550781	-0,0251177394034537	0,0418628990057562
22657	2054	2068	84691,4367675781	-0,0251177394034537	0,0334903192046049
22817	2062	2075	84696,3195800781	0,00837257980115123	0,0627943485086342
22977	2063	2074	84701,2023925781	0,0125588697017268	0,0586080586080586
23137	2058	2068	84706,0852050781	-0,00837257980115123	0,0334903192046049
23297	2057	2070	84710,9680175781	-0,0125588697017268	0,0418628990057562
23457	2058	2068	84715,8508300781	-0,00837257980115123	0,0334903192046049
23617	2065	2073	84720,7336425781	0,0209314495028781	0,054421768707483
23777	2058	2068	84725,6164550781	-0,00837257980115123	0,0334903192046049
23937	2061	2067	84730,4992675781	0,00418628990057562	0,0293040293040293
24097	2059	2070	84735,3820800781	-0,00418628990057562	0,0418628990057562
24257	2058	2071	84740,2648925781	-0,00837257980115123	0,0460491889063318
24417	2055	2062	84745,1477050781	-0,0209314495028781	0,00837257980115123
24577	2053	2060	84750,0305175781	-0,0293040293040293	0
24737	2057	2064	84754,9133300781	-0,0125588697017268	0,0167451596023025
24897	2060	2065	84759,7961425781	0	0,0209314495028781
25057	2054	2061	84764,6789550781	-0,0251177394034537	0,00418628990057562
25217	2052	2065	84769,5617675781	-0,0334903192046049	0,0209314495028781
25377	2053	2068	84774,4445800781	-0,0293040293040293	0,0334903192046049
25537	2059	2075	84779,3273925781	-0,00418628990057562	0,0627943485086342
25697	2059	2074	84784,2102050781	-0,00418628990057562	0,0586080586080586
25857	2059	2070	84789,0930175781	-0,00418628990057562	0,0418628990057562
26017	2064	2072	84793,9758300781	0,0167451596023025	0,0502354788069074
26177	2070	2073	84798,8586425781	0,0418628990057562	0,054421768707483
26337	2064	2071	84803,7414550781	0,0167451596023025	0,0460491889063318
26497	2059	2066	84808,6242675781	-0,00418628990057562	0,0251177394034537
26657	2062	2071	84813,5070800781	0,00837257980115123	0,0460491889063318
26817	2066	2073	84818,3898925781	0,0251177394034537	0,054421768707483
26977	2066	2070	84823,2727050781	0,0251177394034537	0,0418628990057562
27137	2057	2062	84828,1555175781	-0,0125588697017268	0,00837257980115123
27297	2066	2072	84833,0383300781	0,0251177394034537	0,0502354788069074
